231.3
237
240.4
243.9
248.4
251.6
249.3
239.7
226.4
217.5
220.4
236.8
260.6
281.4
290.8
286.4
272.2
254.7
238.9
225.6
212.6
197.3
178.7
158.6
139.9
124.9
113.7
104.4
94.8
84
73.5
65.5
61.1
58.9
55.2
46.9
33.7
18.5
5.5
-2.6
-6.6
-10.5
-18.9
-34.3
-54.9
-75.7
-91
-98.3
-99.9
-101.7
-109.3
-124.6
-144.7
-164.8
-182.1
-197.4
-213.6
-231.7
-248.9
-260.4
-263.4
-260.5
-258.8
-264.6
-279.6
-299.7
-318.3
-331
-338.2
-343.6
-350
-357.4
-362.8
-363.5
-358.8
-351.3
-345.1
-343.7
-349
-361.4
-380
-403.1
-428
-452
-473.1
-490.9
-505.8
-518
-527.5
-534.3
-539.9
-546.8
-554.7
-558.3
-545.9
-504.1
-425.6
-314.4
-186
-61.1
42.8
117.8
165
190.5
200.5
198.6
186.7
167
143.4
122
108.5
106.4
115.5
131.9
150.4
166.8
180.4
193.3
208.5
227
246.8
263.9
273.8
273.8
263.3
243.9
219.4
195
175.8
165.5
164.2
169.2
177.4
187.4
200.4
217.5
237.7
257
270.2
274.4
270.9
263.4
256.2
251.5
249.2
248.1
247.4
246.7
246
245.2
244
241.5
237.2
231
223.9
218.5
216.7
218.5
220.4
217.5
206.1
187.3
166.6
150.4
141.7
138.5
136.1
130.9
123.2
115.9
111.1
108
103.8
96.1
85.3
73.6
63.3
54.9
47.6
40
31.3
20.8
7.2
-10.3
-30.8
-50.7
-65.9
-74.5
-78.4
-82.6
-91.1
-104.4
-119.5
-133.1
-144.5
-154.9
-165.5
-175.1
-181.2
-182.9
-183.1
-186.8
-196.9
-210.9
-222.4
-225.7
-220
-210.2
-202.9
-201.9
-206.3
-211.8
-214.2
-212.4
-208
-204.5
-205
-210.9
-221.2
-232.6
-240.2
-240.8
-234.2
-224.1
-216.2
-214.9
-221.4
-233.7
-249.2
-265.7
-281.6
-295.5
-305.5
-310.7
-312.4
-313.8
-318.2
-326.1
-335.7
-344.3
-351.4
-359.3
-370.8
-386
-401.9
-414.7
-423.9
-432.9
-446
-462.6
-473.3
-463.2
-418.7
-335.5
-221.4
-92.5
33.5
143.6
230.7
292
326.5
335.4
322.2
294.4
261.1
230.2
205.8
188.3
176.6
169.9
169.2
175.4
188.4
206.4
226.9
247.7
267.7
285.8
299.9
306.8
303.2
287.6
262
231.5
203.5
184.6
178.2
183.7
196.5
211
223
230.9
235.9
240.1
245.8
253.6
262
268.2
268.6
260.7
245.3
226.5
210.3
200.9
198.8
200.7
202.4
201.7
199.5
198
198.1
198.5
197
192.7
187.3
183.4
182.7
184.4
186.8
188.1
188.3
188.1
188.1
187.9
186.6
183.9
180.3
176.2
171.1
163.4
151.8
136.7
120.4
106.3
96.9
93
93.1
94
91.7
82.7
65.6
42.3
17.8
-1.5
-11
-10.5
-3.8
4
8.8
9.4
6.2
-0.5
-10.4
-22.6
-34.5
-42.2
-43.3
-38.8
-32.9
-30.3
-33.3
-41.2
-51.7
-62.9
-74.8
-88
-102.2
-116
-127.5
-136.6
-145.1
-155.7
-170
-187.2
-204.3
-217.9
-226
-229.1
-229.6
-231.1
-235.8
-243.9
-253.6
-261.6
-265.8
-266.4
-266
-267.8
-273.6
-282.3
-291.1
-298.1
-304.5
-313.9
-329.4
-350.8
-373.4
-390.7
-398.4
-397
-391.5
-387.4
-387.9
-392.9
-400.3
-408.3
-415.7
-420.4
-417.7
-400.1
-359.2
-289.9
-193.9
-81.2
32.5
130.7
201
239.5
250.5
242.9
225.3
203.2
178.6
152.1
125.8
103
87.3
80.8
83.6
94.7
112.9
137.1
165.2
193.6
218.2
235.4
242.9
239.6
225.7
202.5
173.8
145.3
123
110.4
106.7
108
110.5
113.3
117.9
126.4
138.3
150.7
160.6
166.6
169.7
171.1
170.5
166.1
156.9
143.6
129.2
116.4
106.8
100.6
96.9
94.8
92.9
89.2
81.9
70.8
58.1
47.4
41.3
39.5
39.2
37.7
33.8
28.6
23.9
21
20.1
21.1
24
28.3
32.4
34.1
31.5
24.2
13.8
2.5
-7.6
-15
-18.8
-18.6
-15.8
-13.9
-17.5
-29.7
-50.1
-74.9
-98.6
-117.6
-130.7
-138.7
-142.3
-141.8
-137.6
-131.8
-127.3
-125.7
-126.1
-125.3
-120.9
-113.5
-107.3
-106.1
-110
-114.4
-113.1
-103.3
-88
-74.8
-70.6
-78
-93.3
-110
-122.6
-129.6
-133.3
-137.7
-145.7
-157.7
-171.4
-183.5
-191.7
-197.2
-203.7
-215.5
-233.6
-253.7
-268.7
-273.7
-270.5
-267.1
-271.8
-286.6
-305.4
-318.6
-320.8
-316
-314.3
-324.4
-345.2
-364.3
-363.8
-328.9
-255.8
-152.6
-35.8
76.4
170.2
238.8
282.8
306.4
314.3
310
295.9
275.4
253.3
234.8
223.5
219
218.3
218.3
218
219.8
226.8
241
261.3
284.3
306
323.5
335.3
340.7
338.6
328.3
310.2
287.6
266.5
253.9
254.4
266.9
285.3
301.6
310.6
313.7
316.7
325.4
340.3
355.8
364.6
363
354.3
345.8
343.9
348.8
355.2
356.5
350
338.5
328
323.1
324.7
329.6
334.1
336
335.5
333.8
332.1
330.1
327.3
323
317.7
312
307
303.2
300
296.7
292
285
276.1
266.5
258
251.9
247.9
244.3
239.3
232.1
223.7
216.3
211.8
211.2
213.7
217.6
220.9
221.9
218.6
209.8
194.9
174.3
150.1
124.8
101
80
62.8
49.4
40
34
30.7
28.4
25
18.2
5.3
-15.9
-46.5
-85.1
-127.6
-168.3
-202.7
-229.7
-252.2
-275.2
-302
-331.6
-359.4
-380.2
-391.9
-397.2
-401.7
-410.7
-425.9
-445.3
-464.9
-481.1
-492.5
-499.6
-504
-507.4
-512.2
-520.8
-535
-555
-578.7
-602.3
-622.2
-637.3
-649
-659.9
-672.3
-686.8
-702.8
-719.4
-736.1
-752.8
-769.2
-785.2
-800.9
-817.5
-836.3
-857.1
-877.6
-894
-903.4
-906.1
-904.9
-900.9
-889.1
-858.5
-797.1
-700.9
-579.3
-453.9
-348
-276.3
-238.3
-222.7
-216.3
-212.1
-211.3
-217.6
-231
-245.6
-254.1
-252.6
-244.2
-235.1
-229.8
-227.6
-224.9
-218.9
-211.2
-205.8
-205.1
-208
-210.8
-211.4
-211.2
-212.4
-214.3
-210.7
-193.6
-159.5
-113.3
-66.7
-30.9
-9
6.3
27
61.8
109.5
160.1
201.2
226.3
238.4
246.6
258.9
274.9
285.8
280.6
255.6
219.7
190.4
184
204.3
241.1
276.7
299
309.3
320.7
347
392.3
447.5
497.3
531.7
553.2
574.5
608.3
659
720.5
781.5
833.7
875.3
909.1
937.3
960
976.7
990.5
1007.8
1034.7
1071.9
1112.8
1147
1166.3
1169.1
1159.5
1144.8
1131.2
1122.7
1121.4
1127.4
1138.4
1149.6
1155.1
1150.7
1135.5
1112.2
1084.2
1053.7
1020.9
984.1
940.6
886.7
817.6
730.7
628.1
519.6
421.1
348.4
310.2
304
319.3
344
371.8
404.8
450.5
516.9
608.4
724.9
863.7
1021.4
1194.2
1378.2
1568.2
1757.6
1938.7
2103.4
2243.8
2353.9
2431.4
2476.3
2488.3
2462.8
2389.7
2257.6
2061.6
1811.2
1531
1254.5
1013.2
829.1
712.8
666
684.6
759.5
875
1010.2
1144.7
1264.7
1365.1
1446.9
1510
1551.3
1567.6
1561.8
1545.4
1533.5
1535.1
1547.6
1559.2
1559.8
1549.1
1538
1539.8
1559.5
1589.4
1614.2
1621.4
1608.4
1582.6
1554.2
1529.5
1507.9
1485.4
1460.1
1434.7
1414.7
1403.2
1398.7
1395.1
1386.5
1371.4
1353
1336.7
1325.9
1320
1315.4
1308.4
1296.9
1279.9
1256.8
1226.3
1187.7
1141.5
1090.1
1036.3
982.7
931.4
884.1
842.6
807.1
775.4
742.2
701.4
649.3
587.1
519.8
454.3
395.5
345.2
301.8
261.7
221
176.8
127.1
71.4
10.3
-54.8
-121.6
-188
-252.2
-313.9
-374.1
-434.3
-495.5
-557.3
-618.5
-679.2
-741
-807
-879.4
-957.9
-1040.2
-1123.6
-1206.7
-1289.9
-1373.1
-1454.6
-1530.8
-1598.8
-1657.8
-1710
-1759.1
-1809.1
-1863.6
-1925.9
-1997.5
-2076.9
-2158.4
-2234
-2297.4
-2348.1
-2392.6
-2440.8
-2500.7
-2573.3
-2653.1
-2730.6
-2798.2
-2852.8
-2896.9
-2935.7
-2974.6
-3016.2
-3060.8
-3107.1
-3154.2
-3202.2
-3251
-3298.9
-3342.3
-3377.1
-3401.3
-3417.4
-3431.3
-3449.3
-3474.9
-3507.1
-3541.3
-3571.9
-3594.3
-3607.4
-3613.3
-3616.2
-3620
-3624.1
-3621.7
-3600.4
-3548.2
-3459.1
-3337.5
-3196.9
-3054.2
-2922.9
-2809.8
-2715.4
-2637
-2571
-2514.7
-2465.1
-2419.4
-2374.7
-2328
-2275.6
-2213.2
-2137
-2045.2
-1939.8
-1825.5
-1707.6
-1590
-1474.6
-1361.6
-1251.3
-1143.1
-1035.1
-924.8
-810
-691.4
-572
-453.7
-334.3
-206.7
-63.5
97.9
272.9
452.8
631
806.9
984.3
1165.6
1347.8
1522.8
1683.6
1829.8
1968.5
2109.7
2260.5
2422.1
2591.1
2763.7
2938
3114.4
3293.7
3476.1
3661.2
3849.4
4041.6
4238.7
4440.7
4646.9
4858.2
5076.5
5303.8
5540
5781.9
6026.5
6274.8
6534.8
6819.7
7142.9
7512.6
7929
8384
8862.1
9342.1
9800.1
10214.9
10573.9
10875.9
11127.8
11340.4
11525.7
11697.9
11872.1
12054.1
12225
12331.9
12302.3
12078.8
11658.3
11105.3
10526.3
10017.7
9617.8
9293
8965.6
8564.8
8068.1
7510.1
6951.5
6428.8
5919.4
5350.6
4652.7
3818.5
2920.5
2063.6
1307
625.1
-50
-733.1
-1329.1
-1683.1
-1717.4
-1539.4
-1415.7
-1606.9
-2184.9
-2977.3
-3684.4
-4074.3
-4105.2
-3901.6
-3639.6
-3462.7
-3490.5
-3871.1
-4775.3
-6295.6
-8322.4
-10519.4
-12451.1
-13789.9
-14459.6
-14623.2
-14539.4
-14403.3
-14274.7
-14114.1
-13864.6
-13505
-13046.7
-12503.3
-11875
-11162.7
-10392.6
-9621.8
-8916.9
-8320.8
-7834.9
-7425.3
-7045.5
-6658.7
-6248.3
-5817.2
-5382.4
-4968.6
-4598.5
-4281.4
-4005.7
-3745.2
-3480.1
-3220.4
-3009.6
-2900
-2915
-3027
-3173.4
-3298
-3385.9
-3460.5
-3544.3
-3619.9
-3627.2
-3503.6
-3233.5
-2866.5
-2485.9
-2155.5
-1885.2
-1642.3
-1395.4
-1152
-962.5
-889.5
-968.8
-1191.5
-1515.5
-1893.1
-2293.8
-2707.4
-3130.4
-3546.4
-3915.7
-4181.6
-4291.4
-4219.9
-3981.4
-3621
-3188.9
-2713.5
-2192.7
-1609.7
-963.3
-288.7
347.9
880.6
1279.6
1566.2
1796.9
2028.3
2285.6
2556.1
2807.7
3017.2
3187.7
3344.7
3517.3
3718
3937.9
4156.3
4358.3
4544.1
4724.9
4908.8
5088
5239.3
5337.5
5372.2
5354.7
5310.3
5261.2
5213.8
5159.3
5086.5
4995
4897.8
4812
4746.8
4697.7
4654
4610.8
4575.9
4565.8
4592.8
4655.5
4738.8
4824.3
4901.8
4973.9
5048.4
5126
5193.3
5226.8
5207
5133.1
5027
4924.9
4859.2
4843.6
4870.2
4919.9
4978
5043.9
5128.5
5240.3
5373.1
5503.5
5601.9
5647.6
5638.7
5588.1
5512.3
5420.8
5315
5194.2
5061.6
4924.2
4788
4653.8
4520.1
4390
4274
4185.5
4130.5
4100.3
4075.3
4035.5
3971
3885.1
3788.7
3692.5
3602.9
3523.1
3454.5
3397.7
3350.6
3308.9
3268.4
3228.2
3189.7
3151
3101.6
3020.5
2882.1
2665.7
2363.5
1982.7
1541.1
1059.2
553
29.8
-510.7
-1072.4
-1656.9
-2260.1
-2874.6
-3495.1
-4123.4
-4766.9
-5429.6
-6101.7
-6756.1
-7356.4
-7872.9
-8297.4
-8646.6
-8953.5
-9252.5
-9567.9
-9911
-10286.7
-10700.5
-11163.5
-11690.5
-12292.7
-12970.8
-13708.7
-14473
-15219.2
-15901.9
-16487.7
-16965
-17346
-17659.2
-17936.8
-18201.8
-18461.1
-18708.2
-18931.1
-19122.3
-19282.6
-19420.2
-19544.9
-19663.2
-19777.1
-19886.8
-19994.1
-20104
-20220.9
-20342.8
-20457.1
-20543.2
-20583.1
-20572.8
-20524.4
-20454
-20362.4
-20223.3
-19994
-19642.9
-19171.1
-18605.8
-17968.3
-17241.8
-16376.3
-15329
-14107.6
-12770
-11369.8
-9894.2
-8257.8
-6375.9
-4267.8
-2101.4
-127.2
1460.4
2633.9
3530.9
4342.7
5182.2
6028.7
6777.7
7342.4
7719.6
7978.6
8199.5
8423.8
8651.6
8875.9
9109.3
9379.7
9702.4
10061.5
10417.3
10734
11002.4
11240.3
11474.3
11720.4
11977.5
12235.8
12490.1
12745.8
13015.1
13306.6
13617.7
13934.9
14241.5
14527.3
14793.6
15050.5
15309.1
15574.8
15846.5
16120.9
16397
16677.5
16967.2
17271.8
17598.2
17955.7
18352.9
18789.3
19248.6
19698.4
20103.6
20444.9
20733.6
21010.1
21324.9
21712.4
22171.7
22666.1
23140
23542.3
23844.4
24044.4
24160.8
24219.2
24239.8
24230.3
24186.9
24104.2
23987.3
23851.7
23702.6
23503.8
23165.1
22575.2
21673.8
20510.1
19226.6
17953.6
16680.5
15211.9
13272.1
10707.8
7648.8
4496.1
1730.4
-332
-1667.2
-2480.8
-3022.2
-3430.4
-3713
-3842.5
-3858.1
-3878
-4021.2
-4321.2
-4711.3
-5091.2
-5410.9
-5700.6
-6030
-6441.2
-6913.3
-7382.6
-7791.5
-8123.6
-8401.6
-8658.5
-8909.9
-9147.3
-9350.8
-9510.8
-9639.8
-9769.7
-9932
-10134.8
-10349
-10519.5
-10599.8
-10592
-10561.2
-10609.1
-10816.5
-11191.2
-11656.6
-12092.8
-12404
-12572.2
-12666.3
-12804.6
-13095.8
-13590
-14262.2
-15032.2
-15808.2
-16530.7
-17196.2
-17843.9
-18514.9
-19206
-19853.6
-20361.1
-20656.2
-20738.3
-20680.6
-20579.8
-20490.3
-20388.3
-20196
-19846.5
-19342.7
-18765.1
-18223.8
-17790.4
-17461
-17176.7
-16885.1
-16594.3
-16381
-16346.6
-16553.3
-16986
-17561.8
-18177.1
-18755.7
-19270
-19728.1
-20144.9
-20520.7
-20837.9
-21070.4
-21193
-21185
-21032.4
-20732.5
-20299.9
-19763.9
-19153.4
-18476.7
-17716
-16845.6
-15867.9
-14839.9
-13867
-13061.2
-12489.5
-12141.9
-11939.4
-11769.6
-11526.3
-11134
-10553.3
-9778.7
-8835.3
-7773.2
-6652.5
-5521.5
-4398.8
-3274.3
-2129.3
-960
215.4
1375
2519.5
3683.2
4911.2
6215.8
7546.3
8801.3
9886.2
10776
11535.4
12274.3
13070.8
13924.8
14789.6
15661
16647.8
17941.2
19679.6
21793.7
23955.1
25694.7
26631.7
26671.5
26041.6
25147
24347.7
23803.3
23467.4
23200.9
22900.5
22554.8
22210.1
21902.5
21619
21312.9
20945.7
20514.8
20046
19566.6
19084.8
18593.5
18088
17579.3
17090.1
16638.9
16226.2
15835.5
15446.9
15052.5
14661.6
14293.5
13962.4
13667.9
13394.4
13119.5
12824.2
12497.8
12137.6
11746.6
11331
10899.7
10463.1
10029
9599.5
9171
8738.8
8302.5
7868
7443.2
7031.6
6629.2
6227.7
5822.6
5416.4
5017.6
4632.3
4259.3
3890.2
3515.7
3132.7
2745
2359.5
1980.7
1607.8
1238.1
870.7
509.6
161.1
-170.6
-486.2
-791.7
-1094.3
-1399.3
-1707.3
-2015.2
-2317.8
-2610
-2888.8
-3152.8
-3402.8
-3640.3
-3867.2
-4085.1
-4295.3
-4498.2
-4693.7
-4881.3
-5060.3
-5230
-5390.5
-5542.7
-5688.3
-5829.1
-5966.1
-6099.8
-6229.9
-6356.1
-6477.7
-6593.1
-6698.2
-6786
-6848
-6877.8
-6873.9
-6842.3
-6795.7
-6749.4
-6717.6
-6708.5
-6722.3
-6751.9
-6785.8
-6813.2
-6828.1
-6831.2
-6827.9
-6824
-6821.6
-6818.2
-6809.1
-6791.1
-6764.3
-6731.3
-6694.1
-6652.8
-6606.2
-6554.6
-6499.6
-6443.3
-6385.3
-6321.8
-6248.4
-6164
-6072.1
-5979.1
-5889.6
-5803.8
-5717.1
-5623.7
-5520.3
-5407.4
-5288.5
-5168.2
-5050.6
-4937.9
-4829.9
-4723.7
-4614.7
-4498.9
-4375.7
-4247.9
-4120
-3994.6
-3871.6
-3749.6
-3628.9
-3512.9
-3406.3
-3311.5
-3226.2
-3144.5
-3060.3
-2970.2
-2873.6
-2770.1
-2658.9
-2538.1
-2407.4
-2268.8
-2126.4
-1984.7
-1847
-1715.3
-1590.1
-1469.9
-1352
-1233.4
-1113.4
-995.5
-886.2
-790.2
-706.4
-627.7
-545.6
-456.2
-362.5
-271
-185.1
-101.6
-13.3
84.1
187.4
288
378.2
458.8
539.5
634.7
756.7
911.5
1097.6
1307.3
1527.6
1741.7
1932.8
2088.8
2207.3
2295.5
2365.6
2428.3
2487.9
2543.6
2592.6
2633.9
2669
2700.4
2730
2758.9
2787.4
2815.9
2843.8
2869.6
2891.5
2909.3
2924.2
2938.7
2953.7
2968.3
2980.4
2988.6
2993.7
2997.7
3002
3006.7
3010.7
3013.9
3017.9
3024.8
3035.3
3047.5
3057.2
3061
3057.7
3049.2
3038.3
3027.2
3015.3
2999.8
2976.4
2942.2
2897.3
2845.8
2794.7
2750.6
2716.1
2687.5
2658.4
2623.9
2585.2
2547.6
2515.4
2485
2446
2387
2305.2
2209.3
2114.8
2034.7
1971.7
1920.4
1873.2
1827.6
1785.7
1749.5
1715.8
1677.3
1628.3
1569.6
1508.8
1454.2
1409.3
1370.8
1333.5
1295
1258.2
1227.2
1201.9
1176.6
1143.4
1099.3
1050.8
1012.4
999.7
1021.8
1076.9
1153.7
1236.6
1311.9
1370.9
1410
1429.5
1431
1416.8
1389.9
1354.6
1315.4
1275.5
1235.2
1192.1
1142.1
1083.2
1016.4
946.3
878
814.6
756.8
703.8
655.7
613.6
578.3
547
513.2
469.6
412.5
345.6
278.3
220.8
178.5
149.6
127.3
104.6
78.8
51.5
26.7
7.1
-7.1
-17.6
-26.9
-37.3
-51.1
-71.2
-99.9
-137.5
-180.8
-223.9
-260.9
-288.9
-308.8
-323.9
-337.1
-348.7
-357.6
-363.6
-369.1
-378
-393.1
-413.7
-436.4
-457.8
-477
-495.7
-516.2
-538.4
-559.8
-577.1
-589.3
-598.2
-607.3
-618.9
-633.5
-649.6
-665.6
-680.8
-695
-708.1
-719.2
-727.7
-733.5
-737.1
-739.9
-743.3
-748.8
-757.8
-770
-782.2
-786.2
-770.8
-725.3
-645.7
-537.5
-415.1
-295.2
-191.1
-107.8
-43.2
7.2
45.9
72.6
85.5
85.1
75.2
60.9
45.6
29.3
9
-17.6
-49.4
-81.7
-108.9
-127.3
-137.1
-141.5
-144.2
-147.9
-153.1
-159.7
-166.9
-174.1
-179.8
-181.7
-177.7
-167.2
-151.3
-133.3
-116.8
-104.9
-98.5
-96.3
-95.1
-91.6
-83.8
-73.4
-64.1
-60.2
-63
-69.7
-75.8
-78.3
-78.4
-80
-87.4
-101.4
-119.3
-137.1
-151.4
-160.3
-163.2
-160.9
-155.5
-151.1
-151.9
-159.6
-171.6
-182.7
-188.5
-189.1
-188.2
-190.3
-196.2
-202.6
-205.4
-203.3
-198.7
-195.8
-196.8
-200.8
-205.8
-211.1
-218.4
-229.6
-244
-257.7
-266.7
-270.9
-274.7
-283.2
-296
-303.5
-288.7
-236.3
-141.7
-15.4
121.5
246.8
345.7
415
459.6
486.6
500.3
501.8
491.2
470.2
442.1
411
379.4
347.9
316.5
285.3
255.7
229.3
207.2
188.9
172.6
156.6
140.3
124.8
112.3
104.2
100
97.5
94
88.7
83.5
82.2
88
101.3
118.8
135.2
145.5
147.7
143.4
135.7
128
121.2
114.4
105.6
93.7
78.9
62.8
46.8
31.7
17.9
5.6
-4.9
-14.2
-24.2
-36.9
-53
-70.3
-84.5
-92.1
-94
-95.4
-102.4
-117.8
-138.5
-157.7
-169.7
-174.2
-175.6
-179.3
-187.6
-198.5
-208.1
-214.3
-217.8
-221.2
-226.1
-232.6
-239.9
-247.6
-256.4
-266.6
-277.4
-287.9
-298.4
-310.9
-326
-339.2
-339.2
-311.2
-244.9
-141
-12.9
119.3
237.5
332.5
404.1
456.5
492.2
509.5
504.4
475.6
428.5
374.4
325.5
289.1
264.8
245.8
224.6
197.8
168.7
143.4
126.6
118
112.7
105.2
92.8
76.8
60.8
48
40.2
37.5
39.8
46.4
56.1
66.9
76.6
84.2
90.2
95.5
99.9
101.2
96
83
64
43.8
27.3
16.3
8.2
-1.7
-17
-37
-56.8
-71.3
-79.1
-84.4
-93.7
-110.8
-133.3
-153.6
-164.7
-165.5
-161.7
-161.4
-168.5
-180.5
-190.5
-194.3
-193.6
-194.5
-202.5
-217.8
-235.5
-250.4
-261
-269.4
-278.2
-286.8
-291.8
-290.4
-284.7
-281.1
-286.2
-300.8
-319.3
-333.6
-340.1
-342.7
-348.8
-360.3
-368.4
-354.9
-302.6
-205.6
-74.6
68.8
201.8
309.6
387.9
439.4
468.3
478
471.3
451
421
385.1
345.9
305.4
265.6
228.4
196
169.7
150
136.2
126.7
118.8
109.1
95.5
78.2
60.6
47.1
40
38.2
38.5
38.5
39.3
43.8
54.3
69.9
86.1
98.2
104.1
104.3
101.3
96.7
90.5
81.8
69.8
54.9
38.4
21.8
6.9
-4.7
-12.9
-19.3
-26.9
-37.8
-51.1
-63.2
-70.4
-72.6
-73.7
-79.3
-91.6
-107.5
-120.3
-125.5
-124.1
-122.7
-127.9
-141.7
-159.8
-175.5
-184.3
-187
-187.8
-191
-198
-206.8
-215
-221.3
-227.1
-235.3
-248
-264.8
-282.3
-295.9
-302.6
-303.8
-305.8
-315.6
-334.1
-352.2
-351.4
-312.6
-226.7
-101
43.2
180.5
292
370.8
419.5
444
449.1
437.2
411.1
375.4
335.5
295.9
258.6
224
192.4
164.7
141.5
121.6
102.6
82.1
60.2
38.9
20.9
7.3
-3.3
-12.7
-21
-26.3
-25.4
-16.1
1.4
24.3
48.6
70.4
86.6
95.2
96.1
90.8
82.2
73.3
65.1
56.6
45.4
30.6
13.3
-3.3
-17
-27.9
-38.8
-52.3
-68.1
-82.7
-92
-94.9
-94.9
-97.2
-105
-116.3
-126.4
-132.5
-136.6
-144.4
-159.1
-177.4
-190.8
-192.3
-183.7
-175.1
-178.1
-196.3
-222.4
-244.1
-253.5
-253
-251.6
-256.4
-267
-277
-281.7
-283.2
-288.7
-301.8
-315.9
-314.9
-282.2
-210.3
-105.7
15.3
134.6
239.1
322
381.1
415.9
427.8
420.5
399.7
371.2
338.2
301.1
259.8
215.6
172.8
136.6
109.7
91.2
77.5
64.7
50.8
36.1
21.8
9
-1.5
-8.5
-10.2
-4.7
8.8
28.7
51.4
72.6
88.8
98.4
101.9
100.8
97.3
92.7
87.4
80.6
71.1
58.1
41.7
23.6
6.2
-8
-18.3
-26.2
-34.6
-45.7
-59.9
-75.5
-89.9
-101.7
-111.1
-119.3
-127.6
-135.7
-143.1
-149.2
-154.6
-160.5
-168.1
-177.5
-187.2
-195.3
-200
-201.1
-199.9
-198.9
-200.7
-206.7
-217.2
-230.9
-246
-260.4
-273.2
-284.9
-298
-315.5
-338.5
-362.2
-375.1
-361.4
-307.2
-208.5
-74.6
74
213.3
323.9
397
433.6
441.3
428.6
402.5
367.9
328.3
287.1
247.5
212
181.2
154.8
131.7
111.5
94.3
79.8
66.9
53.8
39.6
25
12.7
5.4
3.8
6.3
10.5
15.3
22
32.3
46.6
62.4
75.8
83.3
83.6
77.2
65
48.3
28.9
9.8
-6
-17.3
-25.5
-34.2
-46.3
-61.9
-78.3
-92.2
-102.1
-108.9
-114.9
-121.5
-129.3
-138
-147.8
-158.5
-169
-177.2
-181.4
-182.2
-183.2
-188.4
-199.5
-213.9
-226.7
-234.9
-239.9
-246.1
-256.9
-271.2
-284.2
-291.9
-294.8
-298.4
-308.2
-324.5
-341.7
-352.7
-355.3
-355.4
-362.2
-380.2
-402.3
-410.8
-385.8
-315.8
-204.1
-67.7
70.7
191.6
283.7
344.5
376.9
385.6
374.9
349.3
313.5
273.3
234.5
201.7
176.7
158.3
143.2
128.3
112.2
95.8
81.4
70.6
63.1
57.3
52
47.4
44.7
45.2
48.9
54.8
61.8
69.2
76.8
84.1
89.9
92.8
92
87.5
80.5
72.3
63.9
55.8
47.1
36.2
21.6
4.1
-13.1
-25.3
-30.1
-29.4
-28.8
-33.4
-43.6
-54.2
-59
-56
-49.7
-48
-56.1
-72.3
-89.9
-101.9
-106.2
-105.4
-104.2
-105.3
-109.3
-115.3
-122.5
-130.2
-137.5
-142.8
-145.5
-146.8
-149.7
-156.7
-167.9
-181.2
-194.2
-205.4
-215.3
-225.1
-235.4
-245.5
-254.4
-261.4
-267.5
-274.6
-285.1
-299.1
-311.3
-310.2
-280.8
-212.2
-104.5
29
166.5
287.1
378.5
438.7
470.7
478.3
463.5
429.3
382.2
331.4
285.1
247
216
190
169
155.1
149.8
151.3
154
152.8
146.2
137
129.6
126.6
127
129.3
133.8
143.6
161.9
187.9
215.4
235.9
244.6
243.5
239.9
241
247.9
255.9
258.2
252.2
240.8
229.8
222.5
217.7
211.2
200.6
187.2
174.6
164.3
154.3
140.5
121
98.6
79.8
70.2
70.1
75.3
79.4
79.1
74.8
69.6
65.4
61.7
56.5
48.6
39.1
30.3
24
19.5
14.8
8
-0.7
-9.7
-17.7
-25.1
-33.3
-43.2
-54.1
-64.1
-71.8
-78.1
-85.6
-96.8
-111
-124.7
-134.3
-139.4
-144.3
-155.5
-176.7
-205.2
-233.2
-252.9
-262.6
-266.6
-270
-271.5
-260.7
-222.9
-149.1
-43.2
77.9
191.8
281
338.3
366.3
372.3
362.9
342.1
312.1
275.2
235
196.6
164.7
142.7
130.7
125.5
122.6
118.2
110.8
101.1
89.7
75.2
55.4
30.1
3.2
-18.5
-29.1
-28.4
-21.7
-16.4
-16.6
-21
-25.3
-27.1
-28.7
-35.7
-51.8
-75.3
-99.3
-116.6
-124.7
-127.8
-133
-145.5
-164.5
-183.9
-197.4
-202.2
-201.2
-199.7
-201.7
-207.1
-213.6
-219.5
-226.2
-236.8
-253
-273
-292.3
-307.2
-317.5
-326.4
-337
-349.7
-362.4
-372.9
-381.9
-393.2
-410.5
-434
-460
-483.3
-501.5
-516.3
-532.4
-554.1
-582.1
-613.2
-641.9
-663.3
-676.1
-683.2
-690
-699.4
-706.9
-699.5
-660.6
-582.3
-473.3
-358.9
-267.2
-209.8
-172.3
-121.3
-26.4
117.6
285.1
433.7
530.7
570.3
572.8
567.3
571.4
583.4
590
581.7
562.8
549.4
558.6
596.6
655.9
720.4
774.1
808.4
822.3
819.5
803.8
777.9
743.9
704.9
665.7
631.5
605.8
589.1
579.2
572.9
567.7
562.8
558
553
546.2
535.9
521.4
505.1
491.6
486
491.2
505.7
524
539.4
546.5
543.6
531.9
514.1
492.1
467
439.3
410.6
383.9
362.4
348.2
341
338.1
336.8
335.6
335.4
338.5
347.1
361.4
379.3
397.4
412.4
422.2
425.7
422.2
411.4
393.1
367.5
335.8
300.5
265.4
235.4
215.7
209.9
218.9
239
263.6
284.7
296.8
299.2
295.9
293.1
295.8
304.2
314.5
321.7
323.8
322.7
323.4
328.9
337.9
345.6
347.8
344.5
340.5
341.1
347.4
355.5
359.5
357.1
352.2
351.6
359.9
375.3
391.3
401.7
405.6
405.8
404.6
400
387.5
367.6
352.3
364.2
425.8
546.2
712.8
895.8
1061.8
1188.2
1268.7
1308.7
1315.8
1293.6
1244
1173.7
1097.8
1035.4
1000
991
994.3
990.7
966.4
919.1
857.4
794.4
741.9
706.1
684.9
669.1
646.7
611
567.1
531.7
522.4
542.1
572.2
580.1
538.9
445.1
321
199.7
103.8
34.2
-24.9
-90.5
-167.7
-247.9
-316.8
-364.2
-388.8
-396.4
-395.5
-394.1
-397.3
-407.4
-423.8
-443.5
-462.8
-477.7
-485
-481.3
-464.3
-434.5
-397.7
-364
-345.5
-351.6
-386.5
-450
-539.3
-650
-776.4
-910.3
-1042.2
-1163.8
-1269.9
-1359.7
-1434.3
-1494.2
-1538.8
-1566.6
-1576.5
-1568.6
-1545
-1510.9
-1475.5
-1451.2
-1449.8
-1477.7
-1532.1
-1602.7
-1677.9
-1750.4
-1818.4
-1882.8
-1942.2
-1991.8
-2026.2
-2042.8
-2042
-2024.6
-1988.8
-1930.8
-1849
-1748.3
-1640.7
-1540.5
-1458.5
-1398.7
-1358.9
-1334.4
-1321.3
-1317.1
-1319.8
-1326.8
-1334
-1336.8
-1332.1
-1319.7
-1302.6
-1284.2
-1265
-1240.3
-1202.4
-1146.5
-1075.9
-999.8
-924.8
-845.4
-742.3
-592.7
-386.7
-137.1
124.2
362.1
555.3
701.8
811.7
894.7
952.4
981.6
982
962.7
939.8
927.7
930.4
940.4
945.7
940.2
930
929
947.3
980.3
1008.9
1013.3
989.3
952.5
921.6
892.3
827.8
681
442.3
176.2
12
83.1
451.9
1070.5
1806.6
2513.8
3097.7
3534.3
3841
4034.7
4115.3
4082.8
3961.9
3804.4
3663.6
3563.1
3489.1
3412.4
3318.1
3215.3
3119.6
3025.8
2901
2705.4
2425.6
2091.5
1761.7
1489.6
1293.7
1154.3
1032.9
898
739.9
569.3
407.5
277.7
200.2
188.7
246.6
363.6
517.7
683.1
839.3
975
1085
1164.2
1204
1196
1139.5
1047.4
945.2
862.9
823.7
835.1
887.6
960.4
1030.7
1081.4
1103.6
1094.4
1053.8
982.1
879.6
748.5
594.1
426.7
261.8
116.7
2.7
-81.6
-150.1
-217.9
-287.5
-343.4
-364.2
-342.3
-294
-245.8
-208
-161.5
-74.2
59.5
192
236.3
115.4
-188.9
-625.2
-1105.5
-1553.5
-1929.3
-2220.1
-2418.7
-2516.7
-2520.5
-2468.6
-2424.4
-2444.2
-2544.1
-2693.9
-2843.6
-2958.8
-3038.8
-3104.9
-3176
-3251.7
-3316.5
-3355.8
-3367.7
-3361.7
-3348.3
-3330.1
-3301.9
-3257.6
-3197
-3127.3
-3057.5
-2993
-2932.9
-2872.6
-2809.6
-2745.2
-2683.4
-2625.8
-2569.3
-2508
-2438.5
-2363.3
-2289.3
-2222.1
-2162
-2105
-2047.1
-1986.4
-1921.5
-1846.3
-1748.5
-1615.1
-1441.2
-1236.4
-1022.7
-825.2
-662.5
-541.2
-457
-400.1
-360
-328.5
-302.3
-281.6
-267.6
-258.4
-245.3
-215.1
-156.2
-66.7
43.2
154.5
248.9
315.2
351.8
363.6
357.3
338.8
314.1
289.5
271.9
266.9
276.6
297.3
319.9
333.2
328.5
306.7
280.5
271.1
299.1
373.2
485
612.5
731.4
826.5
896.5
949.9
996.7
1041.7
1083.4
1117.9
1142.9
1159
1168.6
1173.3
1173.7
1170.4
1165.1
1160.4
1158.9
1161.5
1168.3
1179.4
1195.5
1217.5
1245.1
1275.8
1304.8
1327.5
1341.5
1347.9
1351.5
1358.3
1372.9
1397.2
1429.4
1466.4
1505.2
1543.3
1576.6
1596.2
1587.9
1536.4
1433.9
1288
1124.7
980.5
887.3
857.3
875.7
906.7
910.4
861
758.1
624.4
492.6
389.9
329.2
308.8
320.2
356.2
413.2
488.9
576.7
663.2
730.8
764.4
758
717.7
656.1
584.2
502.9
403.1
273.7
113.8
-60.8
-222.5
-346.5
-425
-470.7
-507.8
-556.7
-624.2
-705.9
-795.5
-892.2
-999.6
-1118.9
-1243.6
-1361.9
-1463.7
-1545
-1605
-1638.3
-1632.4
-1573.5
-1457.3
-1296.8
-1116.8
-940.9
-777.4
-617.6
-445.6
-253.4
-49.7
143.7
304.7
424.2
511
584.7
663.8
755.5
855
953.5
1047.5
1142.4
1247.9
1368.2
1497
1619.6
1720
1786.4
1813.7
1804.5
1774.7
1758.8
1809.4
1980
2299.8
2753.1
3282
3808.8
4266.1
4613.8
4840.4
4955.4
4984.4
4962.8
4925.1
4887
4836
4743.3
4591.2
4390
4161
3895
3528.3
2972.7
2190.9
1259.1
354.6
-336.8
-733.1
-902.5
-1008.1
-1193.7
-1496.9
-1847.8
-2141.2
-2316.8
-2388
-2411.8
-2436
-2470.4
-2495.7
-2489.6
-2446
-2374.3
-2290.9
-2211.2
-2148.8
-2115.3
-2117.7
-2155.3
-2221.2
-2305.6
-2398.6
-2488.3
-2558.5
-2592.8
-2585.2
-2547.6
-2506.2
-2484.3
-2484.2
-2483.9
-2453
-2376.9
-2268.9
-2161.9
-2083.8
-2036.7
-1997
-1934.9
-1838.3
-1722.2
-1618.4
-1553.3
-1532.4
-1539.7
-1551.8
-1552
-1535.6
-1505
-1461.3
-1400.1
-1313.8
-1196.6
-1047.8
-873.2
-682.4
-488.2
-303.6
-139.1
-0.1
114.8
210.2
288.6
345.1
367.9
344.5
270.3
154.3
18.2
-112.4
-219.3
-299.8
-366.7
-439.1
-528
-626.8
-711.1
-751.8
-731.7
-655.9
-549.9
-444.8
-362.7
-308.6
-276.1
-259.4
-262.2
-299.4
-389.8
-546.4
-771.2
-1055.4
-1383.4
-1738.1
-2103.3
-2464.1
-2806.3
-3116.5
-3382.6
-3597.5
-3760.2
-3876.3
-3955
-4005.5
-4034.5
-4047.9
-4052.3
-4056.3
-4066.4
-4083.1
-4098.5
-4100.2
-4079.9
-4039.5
-3990.8
-3949
-3922.9
-3910.2
-3899
-3874.8
-3828.5
-3760.3
-3679.3
-3598.5
-3528.9
-3474.8
-3432.1
-3392
-3345.4
-3287.7
-3219.7
-3144.1
-3060.5
-2963.6
-2845.7
-2702.5
-2538.9
-2368.8
-2208.3
-2066.3
-1937.6
-1804.7
-1648.3
-1458.6
-1240
-1006
-767.1
-524.2
-272.2
-9.7
254.5
509.4
757.8
1026.1
1354.9
1771.2
2263.2
2777.5
3245.5
3621.7
3906
4135.7
4355.5
4589.6
4837.1
5089.7
5352.3
5646.7
5993.8
6390.9
6803.7
7182.1
7489.2
7721.7
7909.6
8096.8
8319.4
8595.3
8928.3
9316.4
9755.4
10237.8
10753
11295.7
11875
12513.1
13226.1
13999.7
14781.8
15506.1
16133.3
16677.7
17194.1
17731.4
18292.3
18837.7
19337.3
19822.7
20388
21120.1
22002.8
22868.9
23450.5
23509.4
22965.7
21944.8
20713.7
19554.3
18651.5
18054.6
17711
17528
17419.4
17321.1
17190
17004.4
16766.5
16499.8
16234.1
15988.3
15759
15515.8
15187.8
14642.1
13676.5
12063.7
9659
6522.8
2970.9
-516
-3506.9
-5846.4
-7751.8
-9706.3
-12201.3
-15476.9
-19405.8
-23571.9
-27467.7
-30681.6
-32981.9
-34295.7
-34654.6
-34170.2
-33046.9
-31581
-30103.3
-28874.2
-27995.4
-27400.4
-26930.9
-26445
-25885.7
-25275.8
-24663
-24067.7
-23467.4
-22819.4
-22097.1
-21317.8
-20553.5
-19920.9
-19550.1
-19534.6
-19881.6
-20491.4
-21185.5
-21775.8
-22139.9
-22262
-22223.8
-22156.9
-22185.3
-22385.4
-22776.2
-23341.2
-24066.6
-24971.6
-26102.2
-27482
-29046.2
-30610.1
-31903.8
-32657.3
-32677.5
-31868.9
-30202.2
-27689.2
-24411.2
-20581.4
-16565.1
-12793
-9594
-7056.8
-5026.1
-3240.7
-1507
223.2
1914.5
3569.7
5288.1
7203.2
9358.5
11637.4
13812.9
15678.7
17154.6
18293
19199
19942.1
20528.8
20939.1
21177.6
21288.3
21327.7
21328.1
21288.1
21192.9
21042.9
20862.9
20689
20546.7
20439.5
20353.3
20268.8
20171.2
20051.9
19907.1
19738.4
19555.8
19380.5
19241
19162.2
19152
19192.9
19247.6
19275.2
19250.5
19175
19071.1
18966.2
18876.1
18800.4
18729.1
18653.8
18572.3
18482.9
18376.1
18231.6
18027.9
17755.9
17427.3
17071
16717
16382.3
16064.1
15745.7
15407.2
15032.6
14610
14128.8
13578.3
12949.5
12235.4
11424.5
10494.3
9418.7
8194.5
6876.7
5590.4
4494.2
3703.9
3224
2944.1
2709.4
2418.2
2066.4
1698.6
1308.2
776.9
-77.9
-1372.2
-3043.4
-4853.3
-6514.3
-7847.3
-8855.5
-9666.3
-10398
-11058.6
-11550.4
-11764.2
-11685.2
-11430.7
-11199.3
-11171.4
-11426.3
-11924.6
-12556.1
-13217.9
-13867.4
-14519.4
-15192.7
-15856
-16423
-16809.9
-17007.2
-17096.3
-17184.2
-17302.5
-17363.5
-17227.7
-16839.3
-16316
-15903.1
-15812.9
-16070.5
-16489.4
-16794.7
-16791.6
-16443
-15806.9
-14906.5
-13661.7
-11949.1
-9740.6
-7202
-4663.6
-2478.5
-866.7
158
743.7
1088.9
1338.4
1542.8
1683.9
1732.7
1692.8
1601.7
1491.5
1346.3
1098.7
683.4
115.6
-473.5
-891.9
-1015.2
-900.2
-789.4
-984.1
-1663.6
-2775.2
-4071.6
-5262
-6163.9
-6755.1
-7110.4
-7299.1
-7331.7
-7189.1
-6886.1
-6499.4
-6129.1
-5829.9
-5572
-5265.5
-4823.7
-4212.1
-3451.6
-2586.4
-1656.7
-699
239.7
1104.3
1865.4
2554.3
3260.5
4073.3
5007.1
5967.5
6794.5
7351.7
7593.4
7559.8
7312.4
6877.5
6250.2
5452.6
4575.7
3746.6
3031.5
2361.4
1570
548.6
-582.8
-1427.7
-1454.5
-264.2
2180.1
5503.6
9080.7
12304.5
14805.8
16514.9
17566.1
18139.7
18349
18229
17800.8
17141.5
16399.4
15743.6
15288.4
15047.2
14943.2
14862.8
14709.6
14426.2
13984.7
13371.4
12586.8
11659.7
10649
9617.6
8588.6
7521.1
6333.4
4964.9
3434.8
1851.8
366.8
-900.9
-1914.4
-2720.1
-3409.8
-4074.3
-4773.7
-5529.2
-6326.1
-7118.5
-7839.5
-8421.2
-8822.2
-9047.6
-9150.3
-9208.1
-9290
-9429.2
-9617.3
-9820.7
-10011
-10190.8
-10400.6
-10701.1
-11140.7
-11728.3
-12427.6
-13172.1
-13887
-14498.4
-14928
-15086.2
-14883.7
-14260.3
-13218.3
-11837.3
-10261.8
-8671.6
-7247.3
-6135.4
-5414.9
-5068.8
-4981.4
-4975.5
-4882.2
-4608.9
-4164.9
-3630.8
-3099.6
-2632.7
-2253.6
-1966.9
-1773.1
-1661.2
-1594.6
-1514.7
-1369.4
-1147.4
-886
-642.8
-454
-310.2
-168.3
13.3
243.7
494.7
718.4
875.2
952
965.1
949.8
942.4
965.3
1020.7
1097.4
1184.6
1283
1402.4
1549
1713.4
1870.2
1992.6
2069.6
2112.8
2148.7
2202.6
2286.6
2398.3
2528.9
2671.1
2822.5
2985.2
3161.2
3349.7
3545.2
3738.6
3921.3
4089.8
4249.6
4412.9
4591.6
4790.5
5003.3
5216.9
5417.9
5598.5
5757.5
5896.9
6018
6118.3
6191.8
6230.7
6229.2
6186.7
6109.3
6008.1
5893.9
5772.2
5641.4
5495.7
5329.8
5141.7
4930
4690.4
4415
4098.2
3744
3370.2
3002.6
2665.2
2369.8
2114.6
1890.4
1688.8
1506.7
1343.4
1195.6
1055.2
912.5
762.6
609
462.2
332.7
224.5
132.6
47
-41
-133.7
-226.9
-314.9
-396
-475
-559.4
-654
-755.8
-855.3
-942.4
-1012.8
-1071
-1126.6
-1189.2
-1263.6
-1348.6
-1439.9
-1532.4
-1623.3
-1711.2
-1794.7
-1870.9
-1933.5
-1973.7
-1982.5
-1955.8
-1897.2
-1817.6
-1731.6
-1651.3
-1583.3
-1528.7
-1486.8
-1457.2
-1440.1
-1433.9
-1432.7
-1427.9
-1411.4
-1379.6
-1335.1
-1284.8
-1235.1
-1188.6
-1142.9
-1093.6
-1038.9
-982.8
-934.5
-904
-895.6
-904.8
-919.9
-927.8
-920.3
-896.5
-861.3
-821.3
-782
-747.8
-723.2
-712.8
-719.7
-744
-782.4
-831.5
-890.3
-959.4
-1038.3
-1121.2
-1196.2
-1249.7
-1272.3
-1263.6
-1231.6
-1188.2
-1143.3
-1102.3
-1065.6
-1031.8
-1000.5
-973.9
-956.1
-950.4
-956.6
-969.7
-981.9
-986
-978.9
-960.9
-933
-894.2
-842.2
-776.6
-701.9
-626.4
-557.1
-495.1
-435.9
-374.8
-311.7
-252.3
-202.9
-165.1
-133.9
-100.7
-58.4
-3.6
63.4
140.8
225.4
312.2
396.1
474.5
551.6
637.6
742.8
869.8
1009.7
1144.2
1255.2
1332.1
1374.7
1389.2
1382.4
1358
1318.8
1270
1221.1
1184.1
1167.6
1172.4
1191.1
1211.1
1221.2
1216
1197.7
1173.4
1149.8
1129.5
1108.9
1081.6
1042.2
990.9
932.9
875.5
824.2
781.1
746
719.4
702.6
696.5
699.7
709
721.4
736.4
754.8
776
795.4
805.8
801.8
783.2
755.7
726.6
700.5
677.3
654.8
632
610.6
593.3
580.8
570.6
557.7
538.2
511
478.5
444.4
411.9
382.8
356.4
330.4
301.5
267.3
228.1
187
149
118.1
94.3
73
47.5
13.1
-30
-76.5
-120.2
-157
-188.2
-217.9
-250
-284.6
-317.8
-344.3
-361.1
-369.5
-373.7
-377.4
-381.2
-382.1
-376.5
-363.4
-345.8
-329.5
-318.6
-312.2
-303.6
-282.7
-241.5
-177.3
-94.4
-2.6
85.9
159.6
209.9
232.6
228.2
201
158.2
107.5
55.8
8.8
-29.2
-55
-67.5
-68.4
-62
-54.3
-50.5
-53
-61.1
-73
-89.3
-114.6
-156.5
-221
-307.5
-406.9
-504.2
-585.7
-645.4
-687.3
-721.8
-758.5
-800.6
-844.7
-885.3
-920.3
-952.7
-988.1
-1028.6
-1070.9
-1107.7
-1134.5
-1155.7
-1184.5
-1235.4
-1313.9
-1409.4
-1499.7
-1563.9
-1596.1
-1610.2
-1631.6
-1680.8
-1761.7
-1860.9
-1957.8
-2037
-2093.4
-2129.4
-2147.8
-2148.1
-2127.6
-2082.9
-2010.7
-1906
-1763.4
-1581
-1366.4
-1137.6
-916.8
-720
-551.3
-403.9
-268.2
-139.4
-17.9
95
201.2
304.9
406.6
498.8
568
602.9
603.7
584.7
566.2
562.5
572.5
580.7
567.8
523.5
453.6
376.5
312.1
271.9
254.4
249.6
246
236
216.7
188.6
154.5
120
92.6
78.5
76.7
77.5
66.5
34.8
-15
-71.6
-125.6
-180.5
-250.5
-345.3
-452.2
-531
-530.4
-416.5
-196.3
82.8
357
577.7
731.4
836.2
922.5
1011.9
1108.9
1207.3
1301.3
1391.4
1482
1574
1660.6
1731.1
1779.2
1808.9
1834.5
1873.8
1940
2037.2
2161.7
2306.2
2464.3
2630.2
2797
2954
3086.7
3180.3
3225.8
3224.2
3188.9
3140.8
3099.5
3074.5
3060.1
3039.6
2994.7
2915.5
2803.2
2666.9
2517
2362.8
2214.5
2084.4
1983.6
1913.4
1861.4
1806.8
1735.6
1651.4
1573.4
1519.7
1489.8
1462
1408.7
1318.5
1206.6
1105.2
1042.2
1024.9
1040.3
1066.5
1084.5
1080.1
1040.8
954.3
815.9
636.7
443.7
267.3
125
13.6
-82.7
-175.7
-261.4
-322.7
-344.7
-328.4
-292.9
-264.3
-259.7
-279
-308.8
-333.4
-345.2
-347.5
-350.4
-364.1
-395.5
-448.8
-528.2
-638.4
-782.8
-958.7
-1155.3
-1353.5
-1530.8
-1666.9
-1749.6
-1776.6
-1755.3
-1698.1
-1616.5
-1516.8
-1398.9
-1260.3
-1101.3
-930.2
-762.6
-617
-508.9
-447.1
-435
-473.7
-565
-710.6
-908.9
-1152
-1425.1
-1709.1
-1984.4
-2234.7
-2449
-2622.3
-2754.5
-2848
-2904.5
-2924.8
-2909.9
-2864.4
-2798.5
-2727.8
-2668.7
-2632.7
-2623.5
-2636.2
-2659.8
-2680
-2681
-2647.6
-2567.8
-2437.2
-2261.3
-2055.7
-1842.1
-1642.1
-1471.4
-1337.8
-1242.2
-1181.8
-1153.5
-1154.2
-1181.2
-1231.5
-1302.6
-1393
-1502.6
-1630.5
-1772.8
-1920.9
-2063.8
-2192.9
-2305.6
-2406
-2500.7
-2592.4
-2676.7
-2744.4
-2789
-2813.1
-2829
-2852.2
-2891.7
-2944.1
-2995.5
-3029.8
-3038.9
-3026.1
-3002.9
-2980.7
-2963.1
-2944.4
-2914.5
-2867.3
-2808.4
-2758.6
-2747.6
-2800.6
-2921.9
-3084.6
-3233.6
-3305.3
-3254.5
-3073
-2790.6
-2455.5
-2108.3
-1765.9
-1425.3
-1080.8
-740
-427
-169.7
16.4
138.5
223.3
305.9
418.5
583
807.4
1084.6
1393
1704.2
1994.9
2260.4
2517.3
2794.4
3113.2
3472.9
3848.2
4200.5
4494.6
4710.1
4842.7
4898.7
4889.2
4828.9
4735.3
4627.8
4523.3
4431.2
4351.7
4277.8
4199.4
4108.1
3999.4
3873.2
3733.1
3584
3430.2
3272.5
3108.7
2934.9
2750.5
2561.1
2379.5
2222.1
2103.9
2032.3
2004.5
2007.4
2021.9
2029.6
2019.3
1990.5
1951.6
1913.8
1884.2
1862.5
1843.3
1822.5
1801.3
1786.3
1785.4
1801.4
1830.6
1864.9
1896.4
1922
1943
1963.4
1986.8
2016.8
2057.7
2116.2
2200.1
2315.4
2463.9
2642.3
2845.1
3067.3
3305.6
3558
3821.8
4092.8
4364.2
4626.6
4868.1
5075.6
5239.6
5358.4
5439.1
5492.6
5526.6
5542.3
5538.5
5516
5477.6
5418.9
5321.8
5162.9
4933.6
4656.3
4373.5
4109.2
3831.4
3456.2
2906.3
2186.5
1417.9
789.3
450.6
422
585.7
765.6
834.1
767.1
614.9
428.1
208
-78.6
-443.6
-839.3
-1180.3
-1405
-1523.6
-1605.7
-1717.2
-1859.9
-1963.8
-1939.3
-1747.3
-1431.6
-1093.1
-827.1
-672.3
-603.2
-565.6
-523.7
-485.9
-492.3
-579.4
-747.7
-959.2
-1166.9
-1354
-1550.8
-1810.2
-2159.7
-2573.5
-2999.6
-3433.1
-3975.3
-4814.4
-6111.1
-7854.2
-9793.4
-11516.3
-12641.9
-13009.7
-12745
-12159.8
-11563.3
-11111.5
-10780
-10452.6
-10037
-9521.7
-8949.6
-8357.2
-7741.5
-7081.9
-6388.3
-5725.5
-5190.8
-4863.1
-4765.1
-4862.2
-5090.2
-5381.9
-5674.7
-5905.7
-6014.6
-5963.7
-5763
-5476.1
-5194.9
-4996.2
-4906.8
-4898.3
-4909
-4879.4
-4780.4
-4624.7
-4458.3
-4334.4
-4275.7
-4246.6
-4156.8
-3905.1
-3444.5
-2821
-2153.4
-1560.2
-1088.3
-698.4
-321.6
62.2
391
563
521.5
309.2
46.8
-145.9
-223.3
-225.6
-226.8
-266.3
-316.7
-306.7
-170.5
113.5
518.7
992.6
1483.6
1957.1
2397.9
2805.5
3185.6
3540.5
3861.6
4132.4
4342.9
4507.5
4668.4
4871.7
5127.9
5384
5538
5494.7
5232.1
4830.8
4442.1
4214.5
4228.5
4480.1
4914.3
5472.2
6110.9
6789.3
7449.6
8025
8476.8
8827.7
9154.3
9536.4
9999.1
10493
10925.3
11214.2
11326.6
11277.1
11105.3
10856.1
10576.6
10318.2
10128.4
10033.1
10023.9
10064
10106.2
10105.2
10016.5
9793.4
9400.3
8840.1
8167.4
7459.8
6753.3
5994.1
5058.4
3845.7
2381.5
844.4
-521.6
-1550.4
-2247
-2754.8
-3222.9
-3681.4
-4024.5
-4111.5
-3899.5
-3497.9
-3110.5
-2920.2
-3011.5
-3376.7
-3973.7
-4765.6
-5707
-6707.9
-7627.9
-8325.7
-8727.9
-8858.1
-8803.5
-8648.1
-8427.8
-8137.6
-7771
-7349.3
-6917
-6514.1
-6155.4
-5834.6
-5543.8
-5285.6
-5069
-4895.9
-4754.6
-4626.2
-4498.8
-4375
-4269.7
-4196
-4148.3
-4091.3
-3962.6
-3698.3
-3272.2
-2726.2
-2162.7
-1690
-1349.5
-1076.2
-729.7
-183
590
1491.2
2356.1
3048.6
3523
3817.4
3995.6
4093.8
4111.9
4044.9
3915.1
3773.1
3667
3613.1
3594.1
3585.5
3584
3611.7
3693.7
3830
3986.9
4114.7
4177.9
4174.7
4133
4089.8
4069.1
4075
4099.6
4135.9
4184.5
4248.7
4326.1
4404.2
4466.9
4504.6
4519
4519.1
4511.7
4496.8
4470.1
4429.3
4374.4
4303.1
4204.6
4063.3
3865.8
3603.3
3258.3
2785.8
2110.5
1156.1
-101.4
-1593.1
-3162.6
-4625.3
-5846.1
-6787.4
-7500.5
-8071.7
-8568.9
-9020.9
-9433.8
-9817.4
-10193.2
-10578.4
-10965
-11317
-11589.8
-11757.4
-11824.4
-11816.5
-11760.7
-11671.9
-11555.1
-11414.2
-11255.8
-11083.5
-10889.7
-10656.5
-10367.6
-10024.3
-9649.5
-9277.4
-8935
-8630.4
-8355
-8098
-7857.9
-7642.8
-7459.2
-7298.7
-7132.4
-6917.2
-6612.3
-6198.3
-5692
-5147.5
-4637.8
-4221.7
-3910.3
-3657.7
-3388.9
-3049.6
-2645.8
-2237.2
-1887.4
-1608.7
-1349.1
-1036.4
-643.8
-216
171.1
490.5
812.4
1274.2
1986.6
2945.4
4018.1
5017.1
5804.8
6356.1
6740.6
7048.1
7320.3
7533.4
7637
7609.4
7487.5
7353.3
7292.9
7357.8
7553.2
7851.7
8216.5
8616.2
9026
9422
9782.4
10096.3
10370.6
10623.4
10864.4
11075.6
11215.1
11243.6
11157.5
11000.6
10840.1
10724.6
10654.5
10589.6
10485.5
10329.2
10143.8
9961.9
9791.5
9606.6
9371.6
9077.1
8756.3
8465
8240.6
8075
7924.4
7747.9
7542.7
7342.9
7184.5
7067.3
6949.6
6783.8
6561.8
6328.4
6147.7
6049.7
6002.3
5934.2
5784.1
5526
5141.7
4561
3632.9
2179.5
114.7
-2449
-5198.5
-7744.9
-9805.6
-11316.9
-12396.6
-13184
-13686.4
-13754.4
-13209.1
-12013.1
-10342.4
-8498.4
-6736.4
-5157.7
-3751.1
-2527.5
-1607.6
-1167.1
-1281.5
-1814.6
-2463.4
-2934.8
-3118.1
-3121.3
-3157.1
-3383.4
-3821.1
-4387.8
-4988.6
-5577.2
-6150.5
-6707.9
-7222
-7642.7
-7915.4
-7994.4
-7852.7
-7499.7
-7004.3
-6499.3
-6142.9
-6047.1
-6215.6
-6535.4
-6833.7
-6966.3
-6884.6
-6645.3
-6364.4
-6149.2
-6048.2
-6045.1
-6091.1
-6149.8
-6223.9
-6348.4
-6558
-6849.7
-7164
-7393.1
-7418.2
-7164.8
-6657.3
-6041.7
-5544.8
-5369.4
-5574.8
-6020.8
-6432.5
-6557
-6312.2
-5821.4
-5311.4
-4958.2
-4800.7
-4777.9
-4832.8
-4974.8
-5240.3
-5598.6
-5904
-5954.3
-5608.8
-4864
-3824.2
-2604
-1258.7
195
1703.2
3131.8
4309.1
5120.2
5563.5
5720
5670.9
5449.6
5074
4617.9
4234.1
4088.6
4252.6
4654.5
5140.2
5595.3
6021.6
6503.2
7099.2
7765.4
8379.9
8846.3
9180
9498.4
9925.7
10499.2
11153.5
11786
12330.1
12767.8
13073.4
13155.4
12865.5
12088.2
10846.3
9336.9
7854.5
6644
5774.4
5121.2
4468.6
3667.4
2742
1874.6
1275.2
1028.5
1023.1
1014.2
775.9
236.4
-492.6
-1203.6
-1727.5
-2021
-2158.1
-2249.2
-2356.7
-2465.3
-2515.9
-2467.9
-2336.4
-2180.4
-2057.3
-1988.4
-1967.1
-1998.6
-2124.7
-2393
-2790.9
-3212.2
-3516.7
-3653.8
-3738.1
-3976.2
-4466.1
-5028.4
-5241.5
-4696.7
-3294.9
-1346.3
614.8
2151.1
3123.2
3634.1
3814.6
3676.6
3168.2
2346.4
1465.1
862.2
735
1007.3
1409.9
1700.8
1829.3
1916.5
2094.8
2368
2609
2677.4
2533.9
2255.1
1953
1687
1442.6
1178.7
884.8
597.1
367.9
226.2
164
152.6
167.5
198.2
240.3
282.3
302.3
278
200.2
79.9
-58.3
-192.2
-314.4
-434.6
-570.3
-733
-921.8
-1124.9
-1328.3
-1521.7
-1700.2
-1862.8
-2010.9
-2147.8
-2276.5
-2396.3
-2500.3
-2579.4
-2630.3
-2660.9
-2687.7
-2725.1
-2776.4
-2835.3
-2894.6
-2953.3
-3012.9
-3069.8
-3115.3
-3147.8
-3185.5
-3258.8
-3381.6
-3528.5
-3646.8
-3703.1
-3720.6
-3762
-3860.6
-3965.2
-3971.4
-3830
-3636.7
-3585.9
-3785.1
-4067.9
-3995.7
-3109.8
-1284.9
1085.6
3245.4
4495.8
4591.8
3842
2858.3
2158.7
1906.6
1932.9
1962.2
1836.2
1580.2
1312.5
1116.2
985.4
864.4
715.9
551.3
406.4
302
228.3
162.8
95.4
35.1
-2.9
-14.9
-11.8
-7.9
-5.5
9.4
57.7
151.7
285
434.5
573.8
686.8
773.7
845.7
912.8
974.6
1021.4
1043.1
1038.5
1017.9
997.2
988
992.5
1005.8
1022.2
1041.1
1066.5
1102.4
1147.6
1193.7
1228.7
1242.6
1231.9
1200.5
1157
1111.3
1071.2
1041.5
1023.7
1015.9
1012.8
1007.4
994.3
971.5
941.4
907.3
870.5
828.4
777.6
717.6
653.1
591.6
538.3
492.7
449.7
405.3
361.5
327.1
313
325
359.4
403.3
440.7
459.8
457.6
439.3
413.5
387.1
362.8
341.2
324.3
317.9
329.3
362.4
414.1
474.3
530.5
573.1
598.3
608.1
607.1
600.5
592.4
584.6
576.7
566.6
551.9
532.2
509
484.5
459.8
433.9
405.4
373.9
340
303.5
261.7
210.7
150.8
91
49.3
46.7
97.7
202.8
348.9
513.9
675.3
814.8
919.9
983.4
1003.8
986.3
943
890.8
845.3
816
804.6
807
817.5
831.7
846.9
861.4
874.4
886.4
899.4
914.3
928.8
936.7
930.9
908.4
872.6
831.3
791.7
755.9
721.9
687.3
652.6
621.7
598.4
583.9
577.6
578.5
587.3
604.3
626.5
646.7
656.9
653.6
639.9
623.1
608.7
596.5
581.3
558.4
528
495.4
466.1
440.7
412.9
373.9
318.2
247.5
169.3
91
14.7
-63.9
-151
-248.1
-349.2
-443.2
-521.2
-582.6
-635.4
-689.3
-747.4
-802.4
-841.4
-855.9
-850.2
-841.2
-849.5
-887.6
-953.5
-1033
-1109.3
-1171.2
-1217.3
-1253.1
-1285.2
-1317.5
-1350.9
-1384.8
-1418.5
-1451.6
-1483.6
-1513
-1539
-1562.3
-1585.1
-1610.5
-1639.9
-1671.9
-1702.2
-1725.6
-1737.4
-1735.8
-1720.9
-1693
-1650.7
-1589
-1501.8
-1385.1
-1241.2
-1080.4
-918.3
-771.1
-650.3
-560.9
-501.7
-468.4
-454.9
-454.3
-459.5
-464.4
-465.5
-462.9
-458.2
-452.6
-444.5
-430.4
-407.6
-376.3
-340
-303.8
-272.6
-249.9
-238.3
-239.6
-253.1
-274.3
-294.7
-304.8
-298
-274.1
-238.6
-199.8
-163.3
-130.3
-97.2
-58.6
-10.8
47
111.9
178.4
240.5
294.1
338.7
378.1
417.9
462.7
513.3
566.2
616.5
661.6
703.1
746.6
798.2
860.8
933.3
1010.9
1088.4
1162.7
1233.3
1300.9
1365.9
1426.8
1481.5
1529.3
1572.5
1615.8
1663.6
1717.9
1777.3
1838.8
1900.4
1962.3
2025.2
2088.6
2150
2205.7
2253.7
2294.4
2330.6
2365.7
2403.2
2446.1
2497.3
2557.9
2625.5
2693.8
2755.6
2806.7
2849.7
2892.1
2940.7
2996.2
3051.4
3095.9
3123.4
3136.3
3143.4
3150.9
3155.5
3144.3
3104.5
3035.9
2955.4
2889.8
2856.8
2849.8
2835.4
2770.5
2626.8
2409.9
2156.9
1914.8
1710.9
1533.1
1333.6
1054
658.1
154.6
-403.7
-942.4
-1398.1
-1742
-1984.4
-2159.1
-2300.9
-2429.2
-2545.8
-2643.6
-2718.1
-2772.7
-2816
-2855
-2891.4
-2922.3
-2945.1
-2961.2
-2974.9
-2989.4
-3003.2
-3010.4
-3005.8
-2990.5
-2972.4
-2961.7
-2963
-2971.8
-2977.5
-2971.2
-2951
-2921.1
-2884.3
-2836.5
-2768
-2670.7
-2545.8
-2403.8
-2258.5
-2119
-1987.9
-1866.1
-1757.9
-1670.7
-1608
-1563.4
-1520.4
-1461.5
-1377.4
-1271.3
-1153.1
-1031.4
-908.4
-783.5
-658.6
-540.1
-433.8
-337.2
-238.4
-126.4
-4.2
104
162.5
143.7
46.4
-102.2
-262.4
-405.2
-526.1
-642.1
-773.2
-925.4
-1084
-1221.8
-1313.2
-1347.2
-1330.2
-1282
-1227.9
-1191.6
-1189.9
-1229.3
-1304.3
-1396.8
-1480.3
-1526.4
-1513.3
-1432.7
-1293.2
-1117.2
-933.2
-766.5
-631.9
-531.6
-458.2
-401.6
-354.9
-317.5
-292.3
-280.4
-277.6
-274.5
-262.4
-239.1
-210.2
-184.3
-165.1
-147.7
-123.4
-88.5
-51.1
-26.9
-28.7
-56.3
-97
-136.2
-168.7
-203.2
-254.1
-329.9
-426.3
-528.5
-620.8
-692.5
-738.7
-755.5
-735.1
-665.9
-536.7
-343.6
-95.5
183.4
457
686.2
842.7
919.3
932
909.2
875.3
837.1
785.5
708.5
607.7
504.5
430.1
406.6
433.3
487.5
540.3
574.9
594.4
614.1
645
681.3
700.7
679
606.4
495.4
373.9
269.8
196.9
151.4
120.3
92.7
67.9
53.3
56.3
77.6
110
143
169.6
189
204.2
217.3
227.4
231.3
228
221.1
217.4
222.6
236.6
254.4
268.9
276.3
277.7
277.7
280.2
286
292.4
296.4
296.8
295.4
295.7
300.7
311.8
328.3
348.6
370.9
394.1
417.1
438.5
456.2
467.6
472.1
471.9
471.9
477.9
493.8
520.1
554.1
591.8
628.7
659.8
679.4
682.4
666
632.5
589
545.8
512.6
495.7
496.8
512.2
535.1
557.4
573.6
583
589.6
598.6
611.4
622.5
621
595.1
537.7
451.1
349.1
255.6
199.4
203.3
272.7
388.7
514.7
614.6
673.6
706.5
747.9
828.6
955.1
1107.4
1254.4
1374.5
1466.1
1540.2
1604.6
1653.2
1671
1647.9
1590.3
1518.8
1455
1406.7
1364.7
1311.9
1238.1
1146.9
1051.5
963.8
886.2
814
742.7
674.9
617.4
573.8
538.4
499.1
447.4
384.9
322.1
267.1
217.3
159.8
82.3
-15.1
-117.3
-203.9
-264.2
-304.2
-342.5
-396.6
-472
-560.3
-645.6
-713.8
-757.6
-775.8
-769.3
-740.1
-691.7
-631.8
-573.1
-530.2
-514.9
-532.2
-578.6
-643.9
-715.6
-783.4
-842.5
-893.8
-942.6
-995.5
-1057.3
-1129.7
-1210.2
-1294.3
-1378
-1461
-1546.5
-1638.7
-1738.2
-1840.5
-1937.5
-2023.6
-2100.5
-2176.8
-2261.9
-2359.7
-2465.3
-2570.4
-2669.8
-2765.4
-2863.2
-2964.7
-3062.6
-3143.3
-3196.3
-3222.6
-3234.8
-3248.1
-3269.8
-3294.6
-3310.3
-3309.6
-3297.5
-3288.7
-3297.2
-3325.9
-3364.5
-3397.6
-3415.8
-3421.6
-3427
-3444
-3476.9
-3520.1
-3563.4
-3597.8
-3619.4
-3628
-3623.4
-3602.3
-3558.3
-3485.5
-3382.8
-3257.2
-3122.5
-2994.5
-2883.7
-2789.4
-2699
-2593.4
-2455
-2275.8
-2060.2
-1821.4
-1572.7
-1317.9
-1045.9
-733.4
-357.6
86.7
577.3
1068.2
1510.4
1876.3
2169.7
2414.1
2624.4
2788.8
2876.9
2870.9
2793.5
2704.9
2665.1
2692.9
2756.2
2805
2818.7
2823.2
2860.5
2940.7
3024.1
3059
3043.6
3051.2
3186
3495.7
3915.2
4292.6
4485.4
4451.9
4269.3
4068.1
3939.3
3887.3
3855.1
3789.9
3689.6
3595.7
3551.2
3562.7
3598.9
3618.9
3602.1
3556.2
3502
3452.8
3405.8
3348
3268.9
3168.9
3057.1
2944.4
2836.9
2734.9
2635.8
2538.2
2441
2339.5
2220.9
2066.1
1858.2
1594
1289.2
973.2
676.1
416.8
199.6
20.6
-124.7
-239.5
-330.8
-413.7
-510
-636.5
-793.9
-963.4
-1116.1
-1228.8
-1295.6
-1327.8
-1343.4
-1355.2
-1365.5
-1369.3
-1362.4
-1346
-1326.4
-1309.6
-1297.7
-1289.2
-1282
-1276.9
-1276.9
-1283.9
-1294.9
-1300.8
-1288
-1243.6
-1159.8
-1037.1
-883.5
-712
-536.5
-368.9
-217.3
-85.8
24.5
114.2
185.4
240.6
282.6
314.1
337
352.7
363.1
371.5
383.2
404.1
437.5
481.3
527.1
563.3
580.9
578.5
563.6
547.5
538.4
535.9
532.6
520.6
499.2
476
463.3
469.9
496.6
536.7
581.5
625.7
668.7
712.8
760.7
814.1
874.1
940.5
1010.3
1076.8
1132.3
1173.3
1204
1235.6
1279.2
1337.7
1403.5
1464.5
1512.7
1548.1
1574.6
1589.8
1580.3
1526.1
1413.6
1247
1048.7
848.5
669.4
520.8
401.4
307
235
182.8
144.2
110.5
76.5
42.9
11.5
-26
-92
-211.6
-389.4
-593.9
-767.1
-858.3
-860.7
-819.7
-804.8
-866.7
-1012.1
-1214.9
-1447.4
-1697.7
-1955.3
-2187.2
-2339.2
-2376.4
-2327.2
-2278.3
-2305.6
-2400.5
-2477.3
-2491.3
-2582.4
-3099
-4417.8
-6643.3
-9399.2
-11900.3
-13305.3
-13141.4
-11527.1
-9056.4
-6446.6
-4196.4
-2456.8
-1137.4
-109.1
662.5
1116.2
1175.6
823.3
122.7
-797.6
-1765.6
-2591.4
-3110.9
-3244.7
-3037.8
-2641.3
-2235.9
-1944
-1789
-1722.9
-1688
-1662.6
-1659.4
-1691.7
-1743.1
-1768.4
-1719.8
-1577.6
-1362.9
-1125.6
-917.9
-766.8
-662.5
-566.8
-440.7
-274.4
-100.8
19.8
37.5
-51.9
-197.7
-319.7
-351.6
-274.5
-120.4
54
201.8
307.8
385.8
458.6
536.6
608.9
651.6
644.6
585.6
493.4
397.3
320.3
264.6
209.7
124.4
-12
-193.8
-388.1
-552.1
-657.5
-705.4
-719.2
-722.4
-717.8
-687.5
-613.7
-503.5
-393.1
-325.3
-316.3
-339.2
-341.7
-284.9
-173.5
-51.8
31.9
63.3
72.8
110.7
206.7
349
498.5
625.3
736.1
867.6
1049.3
1268.7
1470.2
1597
1648.7
1705.9
1896.7
2319.2
2973.6
3757.3
4531.5
5210.9
5806.3
6382.3
6964.2
7472.1
7750.1
7678.7
7293
6807.8
6522.5
6660.5
7255
8150.8
9112.9
9956.4
10612.3
11101.9
11463.4
11700.8
11790.3
11724.7
11548
11347
11206.7
11166.8
11208.2
11273.4
11300
11244.1
11088.2
10837.5
10515.9
10159.7
9807.4
9484.9
9194.3
8916.5
8622.4
8285
7879.7
7375.2
6730.9
5911.7
4917.1
3804
2677.2
1646.9
776.3
53.2
-592.3
-1236.9
-1914.3
-2600.5
-3241.2
-3795.2
-4262.9
-4679.6
-5084.7
-5492.7
-5888.3
-6246.5
-6559.9
-6851.3
-7161.6
-7520.7
-7923
-8323.5
-8659.2
-8884.6
-8998.4
-9045.8
-9093.8
-9195.1
-9363.8
-9577.3
-9800
-10009.9
-10207.7
-10405.8
-10609.1
-10808.2
-10988.7
-11145.9
-11286
-11411.9
-11507.9
-11546.1
-11516.4
-11454.1
-11432.7
-11513.1
-11687.7
-11869.9
-11951.1
-11884
-11718.2
-11548.9
-11421.1
-11281.6
-11039.9
-10694.6
-10402.1
-10393.2
-10769.9
-11340.7
-11650.8
-11226.6
-9877.2
-7836.6
-5639.2
-3814.6
-2612.9
-1934.9
-1480.2
-980
-347
329.9
899.8
1263.5
1411.9
1390.3
1245.4
1010.1
735.3
532.3
572.3
1022.5
1942.7
3211.6
4542.4
5599.7
6156.4
6196.9
5900.4
5518.1
5230.3
5076.4
4989.3
4889.7
4756.5
4624.7
4531.8
4470.3
4391.8
4253.7
4060.8
3863.9
3719.4
3647
3621.3
3598.7
3549.6
3469.7
3366
3239.7
3084.8
2903.1
2715.1
2552.5
2437
2365.9
2318.8
2280.3
2254.9
2260.6
2306
2373
2423.1
2421.8
2361.3
2262.9
2160
2080.7
2042.8
2061.8
2157
2344
2619.6
2954.5
3303.4
3625
3894.1
4096.6
4217.9
4242.8
4175.7
4063.9
3996.9
4069.5
4327.7
4736.4
5197.2
5604.3
5900.4
6091.3
6214.2
6289.9
6302.1
6218.7
6034.7
5794.8
5574.3
5429.9
5359.8
5304.6
5188.2
4966.7
4648.5
4276.5
3890.9
3505.7
3115.6
2724.2
2363.5
2087.3
1939
1921.5
1989.3
2072.1
2111.7
2088.7
2023.7
1955.7
1914.9
1906.2
1910.7
1899.9
1850.2
1750.2
1598.4
1398.7
1158.3
891.2
619.6
369.5
157.9
-18.2
-180.7
-354.1
-544.5
-730.2
-876.3
-962.4
-1004.4
-1052.4
-1165.5
-1385.4
-1727.9
-2193.2
-2776.3
-3458.4
-4183.1
-4846.4
-5327.6
-5556.6
-5571.9
-5515.4
-5551.2
-5754.5
-6049.1
-6247.7
-6169.7
-5756.4
-5101.3
-4379.5
-3736.5
-3220.1
-2800.3
-2444.9
-2180.5
-2086.6
-2235.7
-2632.8
-3209.2
-3871.5
-4561.4
-5273.2
-6016.8
-6758.6
-7398.1
-7807.8
-7912.7
-7749.2
-7453.1
-7177.8
-7000.7
-6887.8
-6738.9
-6471.5
-6067
-5540.9
-4875.7
-4001.9
-2870.7
-1570.1
-367.4
400.5
542.4
181.2
-265.2
-298.2
397.9
1821.4
3722.6
5789.8
7794.6
9604
11102.8
12144
12593.8
12428.5
11776.4
10848.5
9808.2
8696.1
7473.8
6146.4
4846.1
3795.7
3172.1
2978.6
3023.4
3022.3
2748.3
2132.9
1268.5
334.6
-490.9
-1090.7
-1427
-1534.6
-1499.7
-1425.2
-1385.7
-1393
-1399.2
-1345.5
-1226.3
-1119.2
-1148.8
-1405.8
-1881.7
-2474.5
-3062.5
-3586.9
-4077.8
-4603.7
-5192.1
-5787.9
-6282.8
-6585.7
-6672.6
-6580
-6358
-6031.7
-5604.6
-5090.3
-4536.4
-4011.3
-3565.8
-3204.2
-2889.9
-2579.8
-2257.6
-1940.4
-1659.5
-1432.4
-1250.2
-1084.5
-905.8
-698.3
-463.1
-210.8
49.6
317.8
599.2
895.8
1196.2
1475
1701.7
1853.9
1923.7
1912.9
1825.6
1667
1452.6
1219
1019.7
904.6
893.2
963
1064.8
1152.6
1207.9
1242.1
1278.5
1331.7
1400.1
1471.8
1535.4
1584.2
1613.5
1618.4
1596.7
1555.3
1510.6
1481.2
1475.7
1487.3
1498.7
1494.3
1469.4
1428.6
1378.7
1321.7
1254.9
1177.6
1095.3
1019.1
957.6
911.8
875.3
840.5
805.6
775.5
757.4
754.1
762.9
777.7
794.1
811
828.4
844
852.6
849.8
836.2
819.7
811.8
821.5
849.7
887.8
921.6
937
926.5
891.6
842
791.7
753
732.2
727.7
731.5
734.7
732.3
727.2
729.4
752.7
808.4
900.1
1019.6
1148.1
1260.7
1334.8
1358.5
1333.8
1276.1
1205.9
1141
1090.6
1055.6
1033.4
1022.9
1027.1
1049.8
1091.3
1144.9
1199.6
1244.8
1276.5
1296.5
1308.1
1310.2
1296.5
1261.5
1207.7
1149.2
1105.5
1089.9
1101.6
1125.9
1144.2
1144.2
1125.2
1095
1063.3
1037.2
1019.4
1008
996.5
974.6
932.8
869.7
795.8
729.1
684
659.9
640.2
603.5
538.7
451.5
359.3
276.6
205.3
135.6
55.8
-37.6
-138
-234.6
-320.6
-396.3
-466.6
-535.2
-601.3
-659.9
-704.4
-729.8
-735.1
-724.5
-707.1
-693.7
-692.4
-705.4
-728.4
-754.9
-780.6
-805.8
-833.2
-864.3
-896.8
-926.9
-951.4
-970.3
-986.6
-1004.6
-1029.2
-1066
-1118.5
-1183.3
-1246.3
-1284.2
-1274
-1205.3
-1088.3
-950.1
-822.7
-728.7
-675.3
-657.9
-668.9
-704
-761.8
-840.3
-933.9
-1034.2
-1134
-1229.6
-1321.2
-1409.9
-1495.3
-1575.5
-1647.6
-1709.3
-1759.7
-1799
-1829.6
-1856.6
-1887.9
-1931.6
-1991.9
-2066.5
-2147.1
-2223
-2286
-2332.6
-2362.7
-2376.6
-2373.7
-2354.6
-2324
-2290.9
-2264.8
-2250.3
-2243.9
-2237.5
-2224.6
-2205.6
-2187.1
-2176.4
-2175.7
-2180.6
-2182.5
-2173
-2146.4
-2100.4
-2036.2
-1959.3
-1879.8
-1811.1
-1764.4
-1743.2
-1741.2
-1744.7
-1738
-1709.2
-1653.1
-1571.6
-1472.1
-1364.6
-1259.4
-1163.2
-1077.3
-998.2
-920.9
-843.6
-768.8
-702.1
-647.4
-603.9
-565.7
-525.5
-478.7
-425.2
-368.3
-311
-253.7
-194
-128.9
-57.7
16.2
87.1
151.4
211.8
279.7
372.2
505.8
689.3
919.5
1182.2
1456.4
1720.3
1955.5
2149.5
2296.4
2399
2468.6
2522.6
2579
2648.7
2731
2815.5
2890.4
2950.6
3001.2
3053.7
3116.7
3189.9
3263.9
3326.2
3369.1
3393.7
3408.6
3425.1
3452.6
3496.2
3556.4
3630.3
3712.6
3797.1
3878
3951.9
4018.4
4079.6
4138.3
4196.4
4254.5
4311.9
4366.7
4414.7
4449.6
4464.2
4454.1
4422.7
4382
4349
4337.6
4350.8
4380.8
4415.3
4447.1
4477.7
4512.1
4549
4574.2
4565.4
4505.7
4395.3
4253
4105.6
3972.7
3859.1
3757.7
3658.7
3554.4
3435.3
3284.3
3076.2
2789
2419.4
1989.5
1537
1094.8
674.1
264.7
-149.3
-571.7
-987.8
-1372.8
-1706.2
-1980.5
-2202.4
-2390.8
-2576.1
-2798.8
-3096.8
-3485
-3939.3
-4404.1
-4823.5
-5176.3
-5482.3
-5774.4
-6056.6
-6289
-6417.5
-6423.7
-6349.8
-6269.4
-6226
-6191.9
-6087.3
-5847.4
-5481.5
-5075.4
-4733.1
-4508.2
-4377.1
-4270.9
-4131.6
-3947.1
-3741.5
-3541.9
-3354.9
-3170.5
-2979.4
-2784.1
-2593.6
-2415.8
-2261.3
-2158.4
-2158.7
-2316.5
-2651
-3116.1
-3607.6
-4006.1
-4231.2
-4271.5
-4174.3
-4008.1
-3824.1
-3641
-3453.4
-3250.1
-3026.6
-2785.7
-2530.5
-2260.5
-1974.3
-1677
-1385.1
-1122.5
-909.7
-752.7
-639.4
-547.8
-459.5
-368.6
-279.2
-193.6
-103.9
5
141.7
295.2
436.8
537.9
590.4
614.7
646.8
715.6
825.9
958
1080.6
1167.4
1206.5
1202.5
1174.2
1149.1
1155
1208.3
1306.2
1429.1
1556.2
1682.9
1826.6
2014.8
2261
2549.5
2838.2
3081.4
3252.7
3354
3406
3430.2
3437.5
3430.1
3409
3379.7
3349.1
3320.4
3293.1
3267.1
3247.2
3239.8
3244.9
3255.2
3265.3
3285
3340.1
3454.5
3625.4
3816.7
3983.1
4107
4210.6
4321.1
4408.7
4355.5
3998.6
3235.5
2121.7
879.5
-202.9
-920.6
-1249.1
-1326.3
-1344.5
-1437.5
-1640.7
-1933.8
-2306.1
-2778.6
-3367.3
-4030.4
-4658.5
-5127.8
-5377.4
-5454.8
-5492.5
-5633.8
-5951.1
-6403.2
-6845.8
-7087.1
-6961.6
-6392.6
-5417.9
-4169.2
-2812.7
-1488
-275.5
790.4
1685.6
2373
2813.9
3002
2986.5
2858.5
2708.6
2586.2
2491.2
2398.1
2289.6
2171.9
2065.2
1983.1
1920.4
1858.3
1778.9
1675.8
1556.1
1433.7
1323.3
1234.5
1170.2
1124.7
1085.8
1039.9
978.6
901.2
812.7
717.1
614.9
506.5
398.3
304.3
239.8
210.3
205.4
205.1
192.5
164.9
131.1
100.3
70.7
30.6
-30
-108.2
-189.3
-259.8
-321.7
-393.3
-494.4
-626.9
-767.8
-881.2
-940.7
-944.6
-913.5
-873.4
-838.9
-808.2
-771.4
-721.5
-658.9
-587.8
-510.1
-425.7
-336
-248.3
-172.9
-117.1
-80
-55.1
-36.2
-23.2
-20.2
-29.2
-45.5
-60.6
-69.7
-77.7
-98.8
-146.9
-226.5
-328.6
-435.1
-527.8
-596.8
-641.7
-668.5
-684.5
-694.3
-699.1
-698.8
-693.8
-686
-677.9
-670.8
-664.1
-654.8
-640
-619.3
-596.3
-577.5
-568.5
-569.5
-573.5
-569.2
-546.9
-504.6
-449
-392.4
-345.2
-311.3
-287.7
-268.1
-246.7
-220.3
-188.2
-152.5
-119
-97.7
-99.9
-132.6
-193.8
-272.6
-354.7
-430.1
-496.8
-558.8
-620.3
-681.3
-737.8
-785.9
-825.2
-858.8
-890.6
-922.7
-954.2
-983.2
-1008.1
-1028.1
-1042.1
-1048.4
-1045.5
-1033.4
-1015.3
-996
-980.7
-971.9
-969.2
-969.9
-971.3
-971.2
-967.4
-954.7
-924
-863.7
-765.2
-628.8
-467
-300
-148
-22.3
76.6
155.4
219.8
270.3
303.7
318.4
319.1
315.3
316
323.6
334.4
342.7
346.9
350.5
357.9
369
377.5
375.9
362.6
344.2
330.5
326.2
325.3
315.1
286.2
240.5
191.3
154.7
139.9
145.1
162
182.6
203.7
226.4
251.5
277.6
301.9
322.7
339.8
353.6
363.3
367.6
365.7
358.5
348.2
336.4
323.7
310.4
297.2
285.3
274.2
262.3
247.5
229.3
209.5
190.3
172.5
154.4
133.1
107.3
78
47.8
19.1
-6.6
-29
-48.6
-66.8
-85.7
-107.4
-132.4
-158.4
-182.3
-201.9
-218.5
-235.5
-255.8
-279.1
-302.1
-321.6
-337.4
-352.3
-369.6
-390
-411.2
-430.8
-448.6
-467.5
-490.9
-518.8
-547
-569.5
-583.3
-590.6
-598.2
-613.3
-639.1
-673.8
-710.6
-740.2
-751.7
-734.9
-681.7
-589.7
-464.5
-319.5
-172.4
-39.5
69.6
153.1
215.3
262.2
298
323.8
338.8
342.2
335.6
323.5
311.9
305.7
305.7
309.2
310.9
307.5
299.5
290.5
283.8
278.8
269.6
249.3
215
171.4
128.4
95.3
74.9
63
53.3
43.7
38.5
44.6
64.4
93.4
122.2
144.3
159.6
172.7
186.8
199.3
203.6
195.1
176
154.6
138.8
131.4
128.7
125.6
119.8
112.5
105.3
97.7
86.8
71.2
52.8
35.5
21.4
9.1
-5.1
-22.6
-40.7
-55
-64.2
-73
-88.8
-115.8
-150.3
-182.6
-203.8
-213.1
-217.9
-228.6
-250.1
-278.6
-305.6
-325.8
-341.8
-362.9
-396.5
-441.8
-488.9
-525.4
-544.8
-550.1
-551
-556.4
-569.1
-586.2
-603.3
-618.5
-633.3
-649.9
-668.9
-689.6
-711.4
-734.6
-757.8
-774.4
-771.8
-735.5
-656.5
-538.5
-397.2
-253.8
-124.8
-16.2
75.7
156.8
228.1
284.1
318
328.9
324.6
318.3
319.8
330.1
341.9
347
343
335.1
330.8
333.4
339
340.5
333.4
319.3
304.1
291.9
281.9
268.9
248.2
219.3
186
154.5
129.7
114.5
110.4
117.3
133.6
155.1
175.9
191.1
198.8
200.6
199.3
197.1
194.4
190.8
185.5
177.8
166.8
151.1
130.5
107.2
85.5
69.4
60
54.9
49.9
41.4
28.6
11.8
-8.2
-31.1
-55.8
-79.4
-98.1
-108.9
-112.7
-113.6
-116.5
-124.3
-136.2
-149.2
-160.1
-167.6
-172.1
-175.2
-179
-185.7
-197.1
-213.8
-234.4
-255.8
-274.5
-288.6
-298.4
-306.3
-314.7
-325.2
-338.1
-352.4
-367
-380.4
-391.1
-398.4
-403.2
-407.6
-414
-423.8
-436.6
-450.6
-463.3
-473.2
-480.2
-485.7
-492.2
-501.8
-514.2
-524.2
-521.6
-493.7
-430.1
-328.4
-196.2
-48
100.3
236.7
355.1
454.2
534.4
596.4
641.1
670.1
686.2
693.1
694.9
695.9
700.1
710.2
726.4
745.7
762.7
772.2
772.2
764.9
755.3
747.5
742.1
735.2
721.3
697.6
666.2
633.6
606.9
589.5
579.7
572.8
564.9
556.5
552.1
556.6
571.8
593.5
613.7
624.6
622.9
611.3
596.4
583.5
573.5
563.4
549.2
530.5
510.5
492.6
476.2
456.5
428.2
391.4
352.6
320.1
297.7
281
261.5
234.1
200.7
168.2
141.8
120.2
97.2
67.6
32.1
-3.7
-34.5
-59.4
-82.4
-108.4
-139.1
-172.7
-205.8
-236.2
-263.4
-288.3
-312.8
-339.5
-371.3
-409.4
-451.2
-491.2
-524.8
-552.4
-580.3
-615.5
-659.2
-704.6
-742.4
-769
-791
-819.9
-862.7
-915.1
-964.2
-999.7
-1021.7
-1041.2
-1070.2
-1112.9
-1164.1
-1215.1
-1261.2
-1303.2
-1343.7
-1382.4
-1417.2
-1449.4
-1485.4
-1532.6
-1590.4
-1645.1
-1674.4
-1659.9
-1597.4
-1498.7
-1383.9
-1269.9
-1165.9
-1075.1
-1000
-945.8
-917.5
-915.7
-933.9
-961.4
-988.1
-1009.4
-1026.4
-1041.6
-1055.4
-1064
-1062.8
-1050.3
-1030.9
-1012.2
-999.2
-990.9
-982.6
-972.1
-966
-979.4
-1027.4
-1114.6
-1230.3
-1353.4
-1463.1
-1547.7
-1604.6
-1633.9
-1631.1
-1586.7
-1492.1
-1345.2
-1148.4
-897.8
-572
-130.1
474.9
1270.8
2240.5
3310.6
4359.9
5246.9
5848.3
6094.4
5989.5
5608.4
5069
4490.7
3957.3
3500.6
3110.3
2762.1
2443.2
2161.6
1934.6
1770.2
1656.2
1564.7
1469
1357.7
1238
1126.5
1035.7
966.5
910.2
856
798.3
738
678.7
622.2
566.7
509
447.9
385.5
325.2
268.2
212.5
154.3
91.9
28
-31.1
-80
-117.9
-149
-179.4
-213.4
-250.7
-288.3
-323.3
-356.2
-390.3
-429.1
-472.8
-517.8
-559
-593.3
-622.1
-650.2
-682.3
-719.7
-759
-795
-824.8
-849.2
-871
-889.7
-898.1
-883.9
-835.8
-750.9
-637.7
-512.8
-394.1
-293.4
-214.4
-154.6
-109.8
-76.6
-53.5
-39.5
-33.8
-34.6
-39.7
-46.5
-52.6
-56.8
-59.8
-63.1
-68.3
-74.6
-79.5
-80.3
-77
-72.8
-73.1
-82.6
-102.3
-129.7
-160.1
-189.4
-215.1
-236.8
-254.9
-268.6
-275.8
-273.8
-261.1
-239.8
-214.8
-191.8
-174.6
-162.8
-153.1
-141.6
-127
-111.3
-97.8
-89.3
-86.4
-87.6
-90.7
-93.8
-95.4
-94.3
-88.3
-76.2
-58.3
-37.4
-18.8
-7.2
-4.8
-10.1
-18.8
-26.6
-31.7
-35.1
-38.8
-43.6
-48.7
-52
-52.2
-49.6
-45.8
-42.6
-42.3
-46.9
-57.9
-75
-94.4
-110.3
-118.1
-117.7
-114.3
-115.1
-124.1
-139.2
-155
-166.8
-174.8
-182.8
-193.7
-206.3
-216.2
-220.1
-219.9
-222.3
-234
-257
-287.6
-319.5
-347.3
-369.3
-386.2
-399
-408.7
-416.5
-424.6
-434.8
-447.9
-462.7
-478.6
-496.4
-517.4
-539.9
-555.3
-549.1
-507.1
-423.2
-304
-166.4
-29.8
91.6
192.2
273.4
338.3
388.4
422.8
440.6
443.1
436.1
427.4
424.5
430.2
441.8
453.1
459.2
459.6
458.3
460.1
466
471.8
471.1
459.6
437.9
410.1
380.3
350.5
321.1
293.5
271
256.9
252.6
256.3
265.4
278.3
294.9
314.8
335.3
352.2
362.4
365.6
364.4
361.3
356.5
348
334.2
316.1
297.1
280.9
269
260.3
252.4
243.3
232.5
220.9
209.5
198.8
187.7
174.7
158.1
138
116.7
97.2
81.4
68.2
54.7
38.3
19.6
1.8
-12.1
-22.1
-31.7
-45.3
-64.5
-87.1
-108.7
-125.7
-137.5
-145.9
-153.1
-160.7
-170
-182.3
-198.6
-218.3
-238.5
-255.4
-266.8
-273.3
-278.2
-284.5
-293
-301.8
-308.9
-313.9
-318.8
-326.4
-338
-353
-369
-384.2
-397.8
-410
-421.5
-433.7
-448.7
-468
-490.6
-509.5
-511.8
-483.4
-416.5
-314.7
-192.4
-67.1
49.6
155.6
254.1
345.9
425
481.8
512
522
525.4
534.3
550.5
566.3
572.8
569
563.1
565.4
579.9
600.9
618.8
627.6
629.3
629.5
630.7
628.7
616.1
589.2
552.1
515.5
489.1
476.5
473.2
471.4
465.8
456.7
449.7
451
462.8
481.3
499.2
509.6
509.9
502.4
492.8
485.5
481.9
480.3
477.3
470.3
458.4
442.4
424.1
405.4
387.5
370.7
354
336.2
316.9
296.7
276.9
258.2
239.6
219.2
195.3
168.4
141.7
119.2
103.9
95.2
88.3
77.1
57.5
30
-0.5
-27.9
-48.9
-64.9
-80.5
-99
-120.5
-141.8
-160.1
-175.1
-189.5
-206.8
-228.3
-253.4
-279.7
-305.2
-328.4
-348.4
-365
-379.3
-393.5
-410.5
-432
-457.6
-484.8
-511.2
-536.1
-560.3
-585
-610.5
-636.5
-663.2
-691.4
-722
-754.4
-785.7
-812.3
-832.9
-849.6
-866.8
-888.4
-914.7
-943.3
-972.1
-1000.7
-1030.6
-1060.1
-1081.1
-1079.6
-1041.6
-961.1
-844
-705.9
-565
-435.5
-324.9
-235.4
-167.6
-120.4
-90.4
-71
-54.4
-35.6
-14.9
3.7
16.1
22.8
28.2
37.4
52.4
71.2
90.3
107.9
124.8
142.3
160
175.2
184.9
188.2
186.7
183.8
182.2
183.4
188.4
197.9
212.3
231.4
254.3
280.6
311.2
347.5
388.8
431
467.1
491
500.8
500.6
498
499.6
507.6
519.6
530.8
537.1
537
530.9
520.6
508.7
498.2
492
491
493.6
495
490.5
478.3
461.1
444.4
433
427.2
423.6
417.3
405.7
390.1
373.4
358.1
343.9
329
312
292.9
273.1
254.1
236.1
218.5
201.2
185.1
171.1
159.4
148.3
134.8
116
91.5
63.6
36.5
14.7
-0
-9.1
-16.7
-27.2
-43.5
-65
-89.2
-113.4
-136.1
-157.5
-178.3
-198.7
-217.8
-235.1
-251.3
-269
-290.8
-317.2
-345
-369.5
-387.6
-401.2
-416.8
-440.9
-475.2
-513.9
-548.1
-572
-587.8
-603.6
-627.2
-659.3
-693.5
-721.6
-739.6
-747.9
-747.1
-731.5
-690.1
-613.8
-503.1
-370.2
-232.4
-103.6
10.2
107.6
185.7
238.1
259.7
253.6
233.2
215.9
213.8
227
246
259.5
262.5
258.1
253.8
255.3
263.2
273.7
282.5
287.8
290.4
291.4
289.4
280.3
260
228.8
193.5
165.2
153.4
160.8
181.8
206.9
228.9
246.6
264
285.4
310.7
335.3
353.2
361
359.6
352
341.4
329.3
316.3
304.2
294.5
288.1
283
275.6
263.5
248.1
234.3
226.6
225.8
227.1
223.5
210.3
188.5
164.4
145.8
137.3
138.6
145.2
151.3
152.5
147.1
136.2
122.9
110.8
102.7
98.3
94.2
85.6
69.8
48.3
27
12.4
7.5
9.3
11
6.5
-5.6
-22.1
-38
-50.7
-61.7
-74.2
-89.7
-106.8
-122.1
-133.8
-142.8
-152.9
-167.2
-185.8
-205.6
-223
-236.6
-248.5
-262.4
-281.3
-304.5
-328.2
-348
-362.3
-372.9
-384.2
-399.8
-420.8
-445.2
-469.4
-490.8
-508.9
-525.9
-545.2
-569.8
-599.3
-628.3
-645.5
-637
-591.2
-504.4
-383
-241.6
-97.1
35.7
146.8
231.6
289.2
323.4
341.5
352.7
364.5
379.3
394.8
407.1
414.1
417.6
421.2
426.7
433.4
439.1
443.1
446.7
451.3
455.8
456.1
447.5
428.2
401
371.4
344.1
320.8
300.2
280.3
260.7
243.5
232.1
229.4
236
250
267.7
285.2
298.7
305.5
303.8
293.3
275.5
253.9
232.5
213.8
197.5
181.2
162.5
141.5
120
99
76.3
48.4
13.9
-23.4
-55.9
-78.3
-92.7
-107.2
-130.2
-162.1
-194.8
-217.6
-226.1
-225.2
-225.2
-233.5
-249.2
-265.7
-277.3
-283.4
-288
-295
-304.6
-314
-320.8
-325.2
-329.3
-334.2
-338.1
-337.6
-330.7
-319
-307
-298.9
-295.9
-295.2
-291.1
-278.5
-255.9
-226.5
-196.1
-170
-149.7
-132.9
-115.5
-95.8
-75.3
-58.1
-46.8
-41
-37.7
-33.9
-28.9
-23.7
-19.4
-15.9
-11.7
-6.1
0.5
6.6
10.6
12.1
10.8
6.6
-0.5
-10.4
-22.1
-34.8
-49.6
-69.9
-100.4
-144.5
-201.9
-268.2
-338.6
-410.8
-486.3
-566.4
-646.1
-710.7
-739.2
-714.2
-633.3
-511.6
-375.5
-249
-143.8
-58.6
13.3
75.6
126.4
162.1
183.3
196.3
209.4
227.8
251.2
275.7
297.5
314.9
328.1
338.1
346
353
360.4
367.6
372.4
371.1
361.5
344.3
323.2
302
283.6
268.3
256.2
247.8
244.1
246.6
255.3
269.7
287.9
307.6
326.2
340.6
348.9
351.2
349.3
345.7
341.8
337.3
331.1
322.8
313.4
304.2
296.5
290.3
284.5
277.7
268.4
255.3
237.8
216.4
194.1
174.8
161.5
154.1
149.4
143.1
132.7
118.6
103.3
89.1
76.5
64.3
52
39.8
29.1
20
11
-0.3
-14.8
-31.3
-46.7
-58.5
-66.8
-73.7
-81.8
-92.3
-104.2
-115.6
-125.4
-134.6
-145.1
-158.1
-172.3
-184.9
-192.6
-195.5
-196.7
-201.2
-211.9
-227.3
-241.8
-249.8
-250.3
-248.6
-252.2
-265.9
-287
-307.3
-319.2
-321.3
-319.5
-322.7
-336.1
-357.9
-381.7
-401.7
-416.8
-429.8
-443.4
-457.5
-469.7
-478.6
-486
-496.5
-513.3
-535.3
-556.3
-567.1
-558.3
-523
-457.4
-361.7
-240.5
-103.9
34.8
162
267.9
348.9
406.6
445.5
469.4
481.3
484.1
482.6
483
489.9
504.3
521.8
536
542.3
541.9
540.7
545.6
559.9
580.6
600.1
610.5
607.8
592.9
570
544.1
518.1
493.1
469.5
448.5
432.3
423.6
424.3
434
450.8
471.5
493.6
515
534.5
550.5
561.3
565.6
562.6
552.9
537.7
518.8
499
481.8
470.7
466.4
466.3
464.4
455.9
440.2
422
407.1
398
391.1
379.6
359
330.8
300.3
272.5
247.7
223.2
197.4
173
154.4
142.6
132.3
114.2
82
37.6
-9.6
-49.4
-78.1
-100
-123.4
-153.7
-190.2
-227.6
-261.1
-289.8
-316.8
-346.1
-379.9
-417
-454.3
-488.7
-518.8
-545.2
-569.7
-594.6
-621.4
-650.8
-681.9
-713.7
-744.9
-775.6
-806.1
-836.9
-867.8
-898.4
-928.7
-959.3
-991
-1022.9
-1052
-1074.3
-1087.5
-1093.8
-1099.5
-1111.9
-1134.5
-1164.3
-1193.9
-1216.6
-1231.1
-1241.6
-1253.8
-1270.1
-1287.7
-1302
-1311.8
-1320.3
-1331.3
-1342.9
-1343.4
-1314.9
-1242.3
-1121.5
-962.7
-785.2
-608.7
-446.5
-303.5
-179.4
-72.6
16.9
88.3
142.7
184.5
220.2
256.5
297
341.3
386.8
431.2
473.9
516.1
558.5
600.2
639.2
674
704.6
731
752
764.5
765.6
755.3
738.1
720.7
707.9
701.2
699.1
700.3
705.4
715.8
731.2
749
765.3
778
787.4
794.8
800.1
801.6
798.4
792.6
788.2
788
789.9
787.2
773.2
746.4
712.1
679.5
655.7
642.3
635.1
627.8
615.4
596.3
570.7
540.4
507.8
475.7
447.5
425.6
410.2
398.5
386
368.6
345.2
318.2
292.4
272.2
258.9
249.9
240
224.8
203
177
150.5
126.1
103.8
82.7
62.8
46.2
34.8
27.1
17.2
-2.4
-34.1
-71.7
-102.7
-116.1
-111.5
-100
-97.7
-114.6
-147
-181.3
-204
-211.7
-213
-220.7
-242.3
-275.1
-309.3
-336.3
-354.4
-368.6
-385.4
-408
-435.3
-463.8
-490.6
-514.7
-536.3
-555.3
-572.1
-587.7
-604.5
-625
-650.1
-677.4
-702.3
-720.2
-730
-735.3
-742.8
-758.5
-784.2
-816.2
-847.7
-872.1
-885
-883.4
-863.1
-817.4
-739.6
-628.3
-491.3
-344.7
-207.1
-92.2
-3.9
61.8
112
151.5
182
203.3
216.7
225
231.8
239.1
246.7
254.1
261.5
269.7
279
288.8
297.7
305
311.5
318.2
324.4
327.5
323.8
311.2
290.9
267.6
248
238
241.2
257.2
281.4
307.1
328.8
344.7
357.7
372.2
390.3
409.8
426.2
436.3
440.4
441.6
442.6
443.8
444.3
444.1
445.3
449.5
455.4
458.6
455
444.4
431.5
422.6
420.6
423.4
426
424.5
418.5
410.1
401.3
392.5
383.3
373.3
363.1
353.3
344.3
335.9
328.3
321.8
316.1
309
297.8
281.7
263.3
248
239.9
237.9
236.1
227.5
209.8
187.5
168.4
157.1
151.4
143.7
128.1
105.3
82.3
66.6
59.5
55.3
45.7
26.9
2.6
-19.7
-35.1
-45.5
-58
-79.2
-110.4
-147.7
-184.8
-217.7
-245.9
-270.7
-294.1
-317.2
-341.2
-368.3
-400.3
-438
-479.6
-521.4
-559.5
-591.4
-617.4
-640.5
-665.3
-696.6
-736.3
-782.4
-829.2
-870.1
-901.5
-926.4
-953.3
-991.1
-1041.7
-1096
-1136
-1142
-1103.1
-1021.9
-913
-794.7
-680.7
-576.6
-482.2
-397.7
-327.7
-279.3
-257.5
-259.6
-275
-290.6
-297.2
-293.8
-285.9
-279.3
-275.6
-270.8
-259.6
-241
-219.9
-204.4
-199.5
-203.2
-208.2
-207.5
-199.7
-190.3
-186.5
-192
-203.8
-215.2
-220.6
-218.7
-212
-203
-191
-172
-141.7
-98.4
-44.1
15.7
74.6
126.7
168.8
201
227.1
252.4
280.8
312.6
345.4
376.7
406.9
438.5
472.5
506.3
534.1
552.1
563
574.4
593
618.6
643.8
660.1
665.4
665.6
668.7
677.3
686
687
678.2
666
659.7
662.3
666.2
659.5
636.7
604.7
578.5
568.5
571.7
574
561.9
533.9
501
476.9
466
460.4
447.5
420.7
384.5
348.9
320.3
297.2
274
248.1
222.2
200.6
182.5
162.2
134.2
100
68.2
47.3
37.3
28.7
9.7
-23.8
-65.4
-103.7
-132
-152.9
-174.2
-201.9
-235.8
-271.1
-304.5
-336.6
-369.9
-404.2
-435.5
-459.3
-475.5
-489.2
-506.9
-531.6
-560.5
-588.8
-614.2
-638.5
-664.9
-693.6
-720.4
-740.6
-753.6
-764.5
-779.5
-799.4
-814.4
-807.2
-761.3
-669.7
-540.1
-391.7
-247.1
-123.1
-25.8
48.4
106.9
155.1
192.6
216
223.4
217.9
207.1
199.5
199.1
204.1
209.3
211.1
210.7
212.9
221.9
237.3
253.6
263.9
263.8
254.7
241.1
227.3
213.8
197.9
176.9
151.6
126.9
109.9
106.3
118
143
176.2
211
241.1
262.8
276.6
286.8
298.7
313.7
328.1
335
329.5
313
292.5
276.2
267.9
265.6
264.9
262.9
259.9
257.2
253.9
247.1
234.9
218.8
203.8
193.9
189.1
184.9
177.5
167.2
159.2
158.5
165.1
172.6
172.7
161.8
143.3
125.1
112.6
105.2
97.5
85.2
69.4
55.3
47.5
44.7
40.5
28.7
9.7
-8.8
-17.8
-14.9
-7.2
-6.2
-19.2
-43.3
-68.5
-85.4
-92.6
-95.8
-102.3
-114.4
-129
-141.4
-150.4
-158.9
-170.3
-185.7
-202.6
-218.6
-232.7
-245.6
-257.8
-269
-279.5
-291.7
-308.8
-331.7
-357
-379.3
-395.5
-408.1
-423.4
-446.2
-475.3
-505
-530
-550.1
-569.4
-592.4
-619.2
-646.2
-669.6
-688.9
-705.8
-719.8
-723.7
-704.8
-650.9
-558
-433.4
-293.6
-156.6
-35.2
66.1
149.5
218.5
273.5
311.9
331.1
333.1
325.6
319
320.8
331.6
346.3
359.5
369.7
379.9
393.8
411.3
428.1
439.8
445.1
447.1
448.7
449.2
443.7
427.1
398.6
363.2
328.2
299.6
279.4
266.5
260
259.4
264.8
275.4
288.5
300.8
309.4
312
308.4
299.7
288.9
278.3
268.4
256.1
237.2
209.6
176.5
144.6
119.8
102.3
86.3
64.5
34.1
-1.5
-35.1
-62.5
-85.2
-109.1
-139.3
-176.5
-216.5
-254.6
-288.7
-319.8
-350.2
-380.6
-409.5
-434.3
-453.5
-467.1
-476.6
-483.6
-490.2
-498.5
-510.4
-527
-547.8
-571.1
-594.6
-616.1
-633.3
-644.3
-647.9
-644.7
-637.4
-629.4
-622.6
-616.1
-606.3
-589.4
-564.1
-532.8
-499.8
-468.7
-440.1
-410.8
-376.2
-333.8
-285.3
-236.4
-192.8
-156
-122.1
-84.9
-41.2
5.2
46.1
74.9
91.6
102.3
113.6
126.7
137.5
141.3
138.1
132.6
129.6
128.3
123.1
108.7
86.6
64.5
50.1
44.3
40.1
28.7
7.1
-20.4
-45.7
-64.9
-80.8
-100.6
-129.5
-167.8
-210.6
-250.3
-278.2
-283.8
-256.3
-188
-80.1
55.2
198.2
330.5
441.8
531.2
601.2
652.3
681.7
688.5
678.7
666.1
664
676.9
697.2
711
708.6
691.4
670
655.6
653.3
660.8
672.9
685.5
696.3
701.7
695.6
672.4
632.8
585.1
541.4
510.2
491.7
480
470
461.9
460.6
470.2
489.2
510.4
526.4
534.6
538.2
542.6
550.3
558.1
560
551.6
533.3
509.4
485.2
463
441.8
419.2
393.8
366.3
338.5
311.4
284.9
258.4
231.8
206
181.3
156.1
127.8
94.5
58.2
24.6
-0.5
-15
-23.2
-32.8
-50
-75
-102.5
-126.5
-145
-161.1
-179.7
-202.6
-226.7
