195.6
202.7
208.8
220.6
239.2
257
262
246.7
215.4
183
166.1
173
198.4
228.8
250.4
257.1
250.3
235.1
216.8
199
184.7
176.1
173.4
173.6
171.6
163.9
151
137
125.9
119.1
114.8
111.2
108.2
107.3
108.8
110.2
108
100.7
91.2
84.7
84.4
88.1
89
80.5
61
35.3
11.4
-4.6
-11.6
-13.9
-18
-29.3
-49.4
-76.6
-106.4
-133.8
-154.8
-167.2
-171.5
-170
-166.6
-164.8
-167.6
-176.2
-190.4
-207.8
-225.2
-238.8
-245.8
-245.7
-240
-231.2
-221.8
-211.9
-200.2
-184.6
-165.7
-147.9
-138.8
-145.3
-169.4
-206
-244.6
-274.6
-291.4
-297.7
-301.3
-308.8
-320.9
-332.5
-337.2
-332
-319.1
-303.4
-287.7
-269.8
-243.9
-205.6
-156.3
-103.3
-56.4
-22.3
-1.7
9.4
16.5
22.4
26.9
28.7
27.8
26.5
27.4
31.6
37.4
41.7
42.7
41.5
41.1
44.6
52.4
62.4
71.2
76.4
77.5
75.9
73
69.6
66.3
63.5
61.9
61.8
62.4
62.8
62.5
62.5
64.4
69.8
78.3
88.3
97.2
103.7
107.9
111
114.1
117.8
122
126.8
132.3
138.5
144.8
149.7
151.4
149.5
144.9
139.8
135.5
132.4
129.2
125.2
120.4
115.9
112.3
109.4
105.7
100.3
93.3
86.3
80.5
75.8
71.1
64.8
56.9
48.3
41.3
37.5
37.7
41
45.3
47.6
45.5
38.2
26.7
13.3
-0.5
-14.3
-28.5
-42.9
-56.4
-67.7
-76.8
-85.1
-93.6
-102.1
-108.3
-110.9
-110.6
-110.5
-113.1
-118.2
-122.6
-123.5
-121.4
-120.6
-125.1
-135.2
-145.4
-148.2
-139.6
-122
-103.5
-92.3
-91.7
-97.8
-102.9
-100.9
-91.4
-80
-73.9
-76.9
-86.2
-94.7
-95.3
-85.9
-70.8
-57.4
-51.8
-55.6
-66.1
-79
-90.4
-98.4
-102.2
-101.9
-98.4
-93.9
-92
-95.3
-103.8
-114.3
-122.3
-125.4
-125.2
-126.4
-133.4
-146.4
-161.5
-173.6
-180.2
-183.5
-188.3
-197.1
-206.9
-209.2
-194.9
-159.6
-106.5
-44.8
14.8
64.7
101.8
126.8
142.1
150.1
153.2
152.8
149.5
142.5
131
115.4
98.9
86.2
81.6
85.6
94.9
104.4
110.7
113.8
116
119.3
123.4
126.2
125.5
121.7
117
114.1
113.5
113.1
109.6
101.7
91.1
81.9
77.7
79.5
85.4
91.9
96.8
99.4
100.4
100
97.7
93.3
88.5
85.7
87
91.5
95.4
94.1
86
73.6
62.3
57
59
65.5
72.2
75.6
75.1
72.8
71.9
75.4
84.5
97.6
110.4
117.8
116.8
108.2
97
88.6
85.1
84
80.2
70.8
57.8
46.4
41.1
41.9
45.2
47.4
48.4
50.7
55.2
58.6
53.6
35.7
7.6
-19.9
-34.7
-31.1
-14.1
4.7
14.9
13.8
7.1
2.7
5.1
11.9
17.4
16.8
9.9
0.4
-7.6
-11.9
-13.1
-13.1
-13.7
-16
-20.5
-27.6
-36.6
-45.7
-52.1
-54.2
-52.6
-50.5
-52
-59.6
-72.6
-88
-101.7
-111.3
-116.3
-118.5
-120.4
-123.2
-125.9
-125.7
-119.8
-107.6
-92.4
-79.5
-74.3
-78.3
-89.3
-103.4
-117.5
-131.4
-146.3
-162.4
-177.7
-188.7
-192.5
-188.2
-176.7
-160.3
-142.5
-127.3
-119.2
-120.3
-128.8
-138.1
-139.8
-128.3
-103.5
-70.2
-34.8
-1.7
27.5
52.3
71.1
81.4
81.6
73.1
60.4
48.5
40.8
37.3
35.2
31.3
24.2
14.5
5.4
0.1
1.2
9
21.8
36.5
50.2
60.2
65.1
63.5
55.4
42.5
28.3
17
11.6
11.4
13
12
6.5
-1.9
-8.4
-8.6
-0.7
13
27.2
36.8
39.4
36.4
31.5
27.7
26
24.2
19.8
11.2
0.1
-10
-15.2
-14.5
-10.1
-6.5
-7.6
-14.1
-23.1
-29.8
-30.9
-26.4
-19.1
-12.5
-7.5
-2.7
3
8.3
9.6
3.7
-8.2
-20.5
-26.4
-22.9
-13.2
-4.7
-3.3
-9.8
-18.8
-23.4
-20
-10.4
-0.6
3
-3
-17.9
-38.3
-60.1
-80.3
-96.9
-109.1
-116.3
-118.5
-115.6
-108
-96.6
-82.9
-69.2
-58.2
-51.6
-48.9
-47.5
-43.9
-36.4
-26.2
-16.9
-11.1
-8.7
-6.3
-0.9
6.9
12.8
11.4
1.6
-11.3
-18.8
-15.5
-3.8
6.6
5.4
-10.2
-33.8
-53.9
-62.5
-60.7
-56.8
-59.1
-69.6
-82.8
-90.9
-91.1
-86.9
-85.4
-90.3
-99.1
-105.4
-104.9
-99.6
-96.6
-102
-115.6
-129.6
-133.2
-119.4
-89.1
-50.1
-11.2
22.4
50.9
77.5
103.4
126.3
141.4
144.9
137
121.6
104.7
90.9
82.5
79.3
80.3
83.8
88.4
93.2
98
103.7
112
124.2
139.7
156.5
171.2
180.9
183.8
179.3
168.4
153.9
140.5
133.1
134.3
142.6
152.7
159.4
161
160.8
164.4
175
190.9
206.7
217.8
223.8
227.6
232
236.3
237.6
234
227.4
222.7
223.5
228.7
234
235.5
234.1
234.5
240.9
253
265.4
272.1
270.3
262.6
253.8
247.6
245.2
245.7
248
251.3
253.8
253.5
249.3
242.6
237.4
237.5
243.2
250.7
254.4
250.7
241
229.8
222.2
220.6
224.2
230.7
237.9
244.3
248.8
250.3
247.1
238.2
223.6
204.8
184.3
165.2
149.6
138.1
130.1
124.3
119.9
117.1
116.1
116.2
114.8
108.5
94.5
71.8
42.1
8.6
-24.3
-52.8
-75.3
-93.4
-111.5
-134
-162
-191.6
-215.7
-229.6
-234.4
-236.9
-244.6
-260.4
-280.4
-298.1
-309.2
-314.8
-318.2
-321.5
-323.3
-321.7
-318.2
-318.8
-330.3
-354.2
-384.3
-410.8
-426.7
-433.1
-437.3
-447.4
-466.2
-489.6
-510.8
-524.8
-531.7
-536.1
-543.4
-556.5
-573.9
-591
-603.5
-610.6
-615.1
-622.4
-635.6
-653.3
-669.4
-676.8
-670.9
-651.4
-621.4
-585.1
-547
-512.1
-485.3
-470.1
-465.9
-467.8
-470.1
-469.7
-468.1
-468.6
-472.3
-476
-475.4
-469.5
-462.5
-460.6
-466.9
-478.8
-490.3
-497.7
-502.1
-506.8
-512.9
-517.6
-516.5
-508.6
-497.5
-487.1
-476.8
-460.3
-430.6
-387.8
-340.5
-301.4
-277
-263.1
-247.7
-220.7
-180.9
-137
-99.7
-74.8
-59.5
-47.4
-34.7
-23
-17.4
-20.3
-28.5
-34
-29.9
-14.4
8.3
31.8
52
69.3
87.6
110.8
140.3
174.4
209
240.2
264.9
283.2
298.1
315.6
341.9
380
427.6
477.5
521.3
554.5
578
597.2
617.7
642.4
671.5
703
734.4
763
785.4
799.1
804
803.5
802.8
805.6
812.4
821.5
832.6
848.2
870.6
897.7
920.7
928.7
916.5
890.5
866.2
858.1
869.5
889.9
901.8
891.4
855.8
803.1
745.8
696
662.3
650.6
663.3
698.2
748.2
804.8
864.6
933.5
1025.3
1152.7
1319.3
1516.2
1726.5
1934.7
2132.9
2321.5
2504.3
2682
2849.7
2997.8
3116.1
3196.5
3235.4
3231.6
3185.1
3094.9
2960.4
2783.8
2573.7
2346.3
2122.2
1921.9
1759.9
1643.8
1575.7
1554.4
1576.2
1633.6
1714
1803.3
1889.5
1966.6
2033.5
2090.1
2134.6
2164.7
2181.5
2191.6
2203.5
2221.7
2242.4
2256.9
2258.8
2251.2
2245
2251.7
2273.9
2302.8
2323.9
2326.7
2311.4
2287.5
2267.1
2257
2255.4
2255.2
2249.5
2236.4
2219.5
2204.2
2193.1
2184.5
2173.6
2156.7
2133.2
2107
2083.2
2065.3
2053.1
2042.8
2029.8
2010.1
1982.9
1949.5
1912.9
1875.2
1837.1
1797.2
1754.1
1708.4
1662.9
1621.4
1584.5
1548.8
1507.4
1454.5
1388.7
1314.7
1239.3
1168.3
1103.2
1042.9
985.4
930.3
877.6
826.5
773.8
715.4
648.8
574.4
494.9
413.6
332.5
252
171.4
89.7
6.4
-78.7
-165.5
-253.1
-340.1
-425.7
-510.6
-597
-688.4
-787.2
-893.5
-1005.1
-1117.8
-1226.9
-1327.9
-1418.5
-1498.8
-1572.6
-1646
-1725.9
-1816.4
-1917.1
-2023.4
-2128.9
-2228.2
-2319.4
-2403.3
-2483.5
-2564.3
-2650.3
-2744.8
-2848.7
-2958.9
-3068.7
-3170.5
-3259.4
-3335.5
-3404.2
-3472.8
-3546.5
-3626.1
-3709
-3790.8
-3868.8
-3942.2
-4012.1
-4079.8
-4145.7
-4209.4
-4270.4
-4328.7
-4385.4
-4442.1
-4499.9
-4558.7
-4616.6
-4670.7
-4718.3
-4757.6
-4789.2
-4814.2
-4834.3
-4849.4
-4857.8
-4856.5
-4842.6
-4815.5
-4777.6
-4734.8
-4693.5
-4658.4
-4630.4
-4606.8
-4582.8
-4554.6
-4520.1
-4480
-4435.8
-4389.7
-4342.7
-4294.5
-4243.1
-4185.2
-4118.1
-4041
-3956.4
-3868.6
-3781.2
-3695.1
-3607.3
-3513.7
-3411.8
-3301.9
-3186.4
-3067.9
-2946.6
-2820.8
-2687.9
-2546.4
-2397
-2241.7
-2082
-1917.7
-1745.9
-1563.3
-1368.9
-1166.7
-965.1
-773.5
-596
-428.4
-259.4
-76.7
126.4
347.8
578.8
810.4
1038.1
1262.7
1487.4
1714.8
1945.3
2179.4
2419.2
2668.1
2928.1
3197.9
3474
3754.3
4041.7
4342.4
4661.5
4997.8
5343.6
5690.4
6036.7
6392.2
6773.6
7195.8
7662.6
8163.6
8678
9182.5
9659.2
10099.5
10502.8
10873.3
11217.1
11542.1
11859.2
12181.3
12516.4
12856.2
13168.9
13404.8
13517.3
13490.1
13354.4
13180.4
13045.1
12992.9
13014.6
13058.4
13069.1
13028.3
12967.9
12944.2
12989.5
13076
13125.9
13062.5
12865.6
12585.1
12296.8
12039.7
11791.3
11510.4
11209.9
10982
10935.3
11082.7
11280.5
11294
10955.1
10293
9527.9
8928.6
8650.8
8682.1
8912.6
9233.2
9540
9638.5
9166.5
7673.8
4867.2
862.7
-3760.1
-8180.2
-11707.1
-14065.8
-15423.9
-16182.1
-16701.6
-17148.7
-17512.9
-17722.2
-17736.9
-17562.8
-17214.7
-16691.3
-15993.7
-15162.7
-14291.1
-13491.2
-12842.3
-12355.1
-11977.8
-11631.7
-11252.7
-10813.6
-10325.3
-9822
-9341.7
-8909.4
-8527.4
-8180.4
-7855.5
-7568.2
-7374.7
-7354.6
-7567.7
-8012.1
-8616.2
-9275.4
-9909.6
-10496.8
-11055.2
-11589
-12045.5
-12325.9
-12345.2
-12095
-11656.4
-11149.1
-10656.9
-10187.3
-9694.9
-9146.5
-8572.2
-8065.6
-7735.2
-7645.9
-7792.6
-8115.3
-8538.7
-9005
-9482.7
-9953.2
-10388.3
-10735.9
-10923.1
-10877.5
-10558.8
-9981.8
-9213.4
-8340.2
-7422.9
-6471.1
-5456.3
-4359.4
-3214.4
-2113.4
-1163.4
-424
127.7
579.6
1026.8
1514.9
2024.1
2499.2
2899.8
3231.3
3538.3
3870.6
4249.7
4660.6
5069.3
5450.6
5803.5
6144.8
6487.6
6822.9
7118.5
7336.7
7458.5
7495.5
7482.5
7455.8
7432.7
7408.1
7367.4
7305.1
7233.2
7172.9
7138.7
7129.5
7133
7140.5
7157.4
7200.5
7283.5
7404.4
7544.9
7683.3
7809.2
7928.7
8053.7
8185.9
8305.3
8377.2
8371.6
8284.3
8144.7
8004.4
7912.4
7892.9
7938.4
8022.6
8122.1
8232.4
8366.1
8536.9
8741.9
8954.9
9137.1
9254.9
9293.7
9259.1
9167.8
9038
8884.7
8719.8
8552.7
8387.8
8222.2
8049
7865.1
7678.7
7507.5
7368.2
7263.6
7178.3
7088.1
6974.4
6834.4
6678.3
6519.6
6365.7
6218.1
6077.5
5948.1
5836.1
5743.3
5664.4
5589.5
5510.9
5426.7
5336.1
5231.5
5092
4885.9
4581.8
4161
3626.3
2999.9
2313.7
1595.6
859.1
101.5
-688.5
-1518.9
-2385.6
-3273.8
-4167.1
-5059.8
-5959.6
-6877.8
-7812.7
-8737.9
-9606.2
-10368.6
-10998.5
-11505.3
-11931.5
-12333.1
-12757.3
-13229.3
-13754.6
-14331.8
-14966.1
-15673.8
-16474.2
-17375.1
-18359.7
-19384.5
-20388
-21308.4
-22100.4
-22747
-23260.8
-23676.4
-24036.3
-24375.1
-24708.5
-25031.3
-25326.2
-25577.8
-25784.4
-25959.4
-26123.9
-26294.2
-26474.4
-26658.3
-26838.2
-27011.9
-27183.3
-27354.3
-27516.2
-27649
-27730.2
-27749.2
-27713.2
-27637.9
-27526.6
-27355.1
-27077.6
-26653.2
-26071.6
-25352.5
-24515.5
-23545.4
-22389.1
-20994.6
-19359.3
-17539
-15598
-13540.1
-11291.1
-8768.4
-5995.2
-3160.4
-559
1564.2
3152.9
4357
5413.2
6482.7
7565.3
8543.5
9302.4
9822.7
10182.5
10485.6
10791.1
11099.2
11390.8
11669.8
11969.8
12323.3
12730
13154.1
13551.3
13899.7
14211.1
14516.2
14841.5
15195.4
15570.6
15956.2
16347.6
16747.8
17161.1
17586
18013.2
18429.6
18826.5
19204
19569.8
19933.6
20300.8
20672.1
21046.7
21426.2
21814.7
22217.1
22637.7
23082.4
23562.1
24090.5
24674.9
25303.3
25940
26536.6
27054.8
27490.4
27880.2
28286.5
28766.7
29344
29996.6
30667.5
31287.1
31798.7
32176.3
32431.3
32605.2
32747.4
32886.2
33013.8
33100.8
33134.2
33142.6
33171
33208.7
33133
32741.9
31885.8
30604.4
29131.8
27715.7
26358.8
24698.5
22172.8
18403.9
13536.4
8265
3503.2
-84.1
-2360.9
-3646.9
-4391.4
-4873.7
-5136.6
-5141.1
-4953.1
-4781.1
-4847.7
-5231.8
-5829.7
-6462.4
-7023.5
-7541.9
-8120.6
-8823.3
-9610.6
-10370.7
-11002.8
-11479
-11841.7
-12154.1
-12449.7
-12718.4
-12929.5
-13067.9
-13157.1
-13253.3
-13413.7
-13655.1
-13931.3
-14150.8
-14234.8
-14182.8
-14097.9
-14142.8
-14446.4
-15019.9
-15743.6
-16433.8
-16948.1
-17261.6
-17470.1
-17732.1
-18189.4
-18911.9
-19883.4
-21024.2
-22233.8
-23437.8
-24618.9
-25812.3
-27059.8
-28345.2
-29560.2
-30535
-31128
-31314.2
-31204.6
-30973.9
-30744.2
-30509.5
-30158.7
-29578.7
-28758.5
-27814.5
-26919.6
-26191.5
-25626
-25123.2
-24584.7
-24007.8
-23508.3
-23257.6
-23380.2
-23880
-24640.8
-25493.1
-26296.5
-26988
-27574.9
-28090.9
-28552.3
-28940.6
-29213.2
-29323.9
-29238.6
-28941.2
-28435.7
-27747.6
-26917.4
-25982.8
-24956.1
-23815.1
-22525
-21083.7
-19560.8
-18095.2
-16845.3
-15915.1
-15304.7
-14911
-14575.1
-14141.3
-13498.4
-12591.1
-11415.2
-10009.2
-8443.1
-6800.2
-5149.4
-3520.5
-1902.3
-265.4
1404.5
3089
4751
6367.6
7953.5
9551.1
11188.8
12839.4
14415.6
15815.9
16992.4
17990.2
18922.1
19892.5
20932.5
22006.7
23095.7
24286
25773.2
27739.9
30176.3
32779.4
35031.7
36440.2
36790.3
36248.8
35249.5
34243.9
33485.2
32972
32553.2
32088.5
31541.6
30964.5
30418.2
29911.3
29401.7
28842
28217.4
27546.8
26855.3
26152.1
25432.4
24698.3
23970.4
23280
22646.1
22060.7
21495
20920.9
20330.9
19741.1
19176.9
18654.7
18172.5
17714.2
17260.4
16796.7
16314.1
15805.7
15264.6
14687.8
14080.5
13456.9
12833.5
12221.1
11619.3
11020.9
10419.1
9813.6
9209.1
8609.8
8015.9
7424.8
6837.8
6262.6
5709.9
5185.5
4684.5
4193.8
3701
3201.7
2700.6
2205.7
1720.8
1243.6
769.3
296.5
-170.7
-625
-1060
-1473.8
-1869.6
-2253.6
-2632.9
-3012.8
-3394.2
-3772.4
-4138.4
-4483.3
-4803.4
-5102.7
-5390.1
-5673.5
-5955.2
-6231.1
-6495.1
-6744.1
-6979
-7202.9
-7416.7
-7617.6
-7801.5
-7966.7
-8117.2
-8261.1
-8407.2
-8559.6
-8715.8
-8867.9
-9007
-9126.3
-9223.5
-9299.3
-9356.4
-9397.6
-9426.8
-9449.9
-9473.9
-9504.9
-9544.3
-9587.8
-9626.7
-9652.5
-9661.3
-9654.6
-9637.1
-9613.2
-9584.8
-9552
-9515.2
-9476.2
-9436.7
-9396.6
-9352.3
-9299.1
-9233.7
-9156.6
-9071.4
-8981.4
-8886.6
-8783.9
-8668.7
-8539.5
-8398.9
-8253.9
-8112.2
-7979.1
-7855.3
-7736.3
-7614.7
-7483.1
-7337.6
-7179.6
-7015
-6851.1
-6692.4
-6538.5
-6384.6
-6225.7
-6059
-5885.4
-5706.7
-5523.2
-5333.6
-5137.4
-4938.5
-4744.5
-4564.1
-4402.2
-4257.5
-4124.2
-3996
-3867.9
-3735.7
-3594.5
-3439.1
-3267.1
-3081.3
-2889.4
-2698.8
-2512.5
-2328.1
-2142.9
-1958.1
-1779.2
-1610.3
-1449.5
-1288.5
-1119.3
-941.5
-764
-598.8
-452.2
-320.1
-192.3
-60.5
74.9
207
329.5
442.9
555
674.5
804
937.8
1066.6
1185.3
1297.8
1416.3
1553.1
1713.1
1890
2068.7
2233.7
2376.4
2497.9
2605.8
2707.9
2806.7
2899.4
2981.8
3053.3
3118.1
3183.1
3252.1
3323.5
3391.9
3452.8
3507
3559.3
3614
3670.2
3722.1
3762.6
3789.9
3808.4
3825.5
3846.6
3871.8
3897.5
3920.4
3940
3957.3
3972.9
3985.6
3994.1
3999.5
4005.5
4015.2
4028.3
4040.2
4045.3
4041.2
4030.3
4017.6
4007.2
3998.9
3988.9
3972.5
3946.2
3909.5
3864.4
3815.1
3767
3724.5
3688.9
3657.3
3624.6
3587.4
3546.3
3505.8
3468.1
3429.1
3377.3
3301
3197.1
3075.9
2957.4
2860.4
2792.7
2748.7
2715.3
2681.1
2642.1
2599.9
2556.6
2511.1
2459.3
2398.3
2329.5
2258.1
2190.2
2129.8
2078.4
2035.5
1999.5
1967.3
1933.9
1894.1
1845.3
1789.9
1734.8
1687.5
1652.7
1630
1615.3
1603.7
1590.3
1571
1541.9
1500.5
1448
1389.3
1331.6
1280.5
1237.2
1198.8
1161.8
1123.6
1083.5
1039.7
988.7
926.5
852.5
771.2
691.5
621.8
566.3
524.4
492.4
465.7
439.3
407.6
364.8
308.1
240.5
170.7
109.7
63.9
32.2
7
-20.3
-54.2
-92.8
-131
-163.5
-187.3
-201.9
-208.2
-208.8
-208.4
-214.1
-232.3
-265.5
-310.3
-359.2
-404.2
-441.5
-471.3
-495.3
-513.4
-523.8
-525.1
-519.1
-511.5
-507.9
-511.5
-521.3
-534.2
-547.9
-561.9
-576.9
-593.1
-609.7
-625.3
-639
-650.4
-659.5
-666.5
-672
-677
-682.7
-689.7
-697.4
-704.8
-710.6
-714.1
-715
-713
-708.4
-702.7
-698.7
-699.6
-706.4
-716.9
-725.6
-726.3
-714.4
-688.9
-652.7
-610.4
-566.9
-525.6
-487.8
-453.3
-421.2
-391
-363.4
-340
-322.9
-313
-309.7
-310.4
-312.7
-315.2
-319
-326.4
-338.8
-353.7
-365.3
-367.2
-356.7
-337.3
-317.4
-304.4
-300.6
-302.1
-301.8
-295.5
-284.3
-272.8
-264.9
-259.6
-251.8
-236.6
-213.9
-189
-169
-158.1
-154.4
-152
-145.8
-135.7
-125.6
-119.9
-119
-119.1
-115.2
-105.7
-94.4
-87.1
-87.7
-94.9
-103.7
-109
-108.8
-104.4
-98.2
-92
-86.5
-82.3
-80.3
-81.7
-86.1
-91.5
-95
-94.9
-91.3
-85.2
-77.5
-67.9
-55.5
-40.1
-23.6
-9
0.6
4.2
2.9
-0.7
-4.5
-8.3
-13.6
-21.9
-33.5
-46.7
-58.7
-66.6
-67.6
-59.3
-39.5
-7.2
36.1
85.6
133.9
174
201.4
215.8
219.7
217
211
203.8
197
191.6
188.1
186
183.9
179.9
173.4
165.6
158.5
153.1
148
140.1
127
109.4
91.5
78
71.2
69
67
62.6
56.6
52.5
53.4
59.3
68.2
78.2
89.5
102.5
115.5
123.3
120.3
104.9
82.2
61.4
50.3
50.4
56.4
60.7
58.6
51
42.7
38.4
39.2
42.3
43
37.6
25.6
9.6
-5.7
-16.4
-20.7
-20.5
-19.8
-22.8
-31.3
-43.1
-54
-59.7
-58.9
-53.2
-46.4
-42.4
-43.4
-49.3
-58.1
-66.6
-72
-73.6
-73.4
-74.7
-79.7
-86.9
-92.5
-92.7
-88.3
-84.5
-87.4
-98.4
-111.6
-116
-102.3
-68.4
-21.4
26.8
66.3
94.2
114.3
132.5
151.1
166.5
172.1
163.3
141.6
114.7
91.6
77.8
73.5
74.5
75.9
74.1
67.5
56
40.6
24.5
11.8
5.7
5.9
8.1
7.2
1.3
-6.9
-12
-10.3
-2.4
7.9
16.7
22.3
25
25.7
24.8
22.9
22.1
23.5
25.8
24.1
13.1
-7.7
-31.9
-49.1
-52.8
-45.1
-35.5
-34.1
-43.3
-57.5
-68
-70.8
-69.3
-70.7
-79.5
-93.7
-106.8
-113
-111.1
-104.5
-97.6
-92.7
-89.6
-87.1
-84.2
-81
-78
-76.3
-78
-85.1
-98.4
-115.4
-129.8
-134.8
-128.2
-114.6
-103.8
-104
-116.2
-132.3
-141.6
-138.3
-126.1
-115.7
-115.7
-125.5
-134.9
-130.5
-105.2
-62.3
-12.2
34.1
71.4
100.2
122.9
139.7
148.8
148.7
141.3
130.6
120.7
112
102.7
90.6
76.5
64
56.9
56.1
58.3
58.3
51.7
37.9
19.7
1.8
-11.9
-19.5
-21.3
-18.4
-12.6
-5
3.8
13.2
22.7
31.4
37.6
39.7
37.2
31.4
25.6
22.9
24.3
27.2
27.2
21.1
9.8
-1.8
-7.7
-5
4
13.1
16.4
11.8
1.3
-11
-21.5
-28.6
-32.1
-32.2
-29.3
-24.4
-19
-15.5
-15.4
-18.9
-25
-32.2
-38.7
-42.8
-43.6
-42
-40.6
-43.2
-52.1
-66.4
-81.8
-92.8
-95.9
-92
-85.1
-79.7
-77.9
-78.9
-80.7
-82.1
-84.5
-90.7
-102.1
-116.8
-128.5
-128.8
-111.6
-76.3
-28.8
20.7
63
93.7
114.1
128.6
140
147.5
147.4
136.7
117.1
94.7
76.7
66.7
62.8
59.7
53.2
43
32.5
25.3
21.3
17.1
8.9
-3.8
-17.3
-25.9
-26.3
-19.8
-11.3
-5.4
-3.5
-3.7
-2.4
2.1
9
15.6
19.9
21.7
22.4
23.3
24.6
25
23.2
18.8
13
7.4
3.1
-0.7
-6
-14.6
-27
-41.5
-55.1
-64.7
-68.8
-68
-64.3
-59.7
-55.1
-50.5
-46.2
-43.6
-44.7
-50.3
-58.8
-67
-72.2
-74.9
-78.4
-86
-97.8
-109.8
-116.8
-116.4
-110.6
-104.7
-102.8
-105.4
-109.8
-112.9
-114
-114.8
-116.8
-119
-117.4
-106.9
-83.8
-48.5
-4.9
39.7
77.4
102.3
112.8
112.5
107.8
104.3
103.5
102.4
96.6
83.6
65.5
47.2
32.8
23.2
15.8
7.5
-2.5
-12.5
-19.9
-22.9
-21.9
-18.2
-13.4
-8.8
-5.3
-3.6
-3.1
-1.6
4.1
16.1
33
49.6
59.7
59.7
50.9
38.5
28.3
24
25.1
28.4
30
27.1
19.5
8.6
-2.3
-10.4
-14.1
-14.8
-15.6
-20.1
-29.1
-40.4
-49.4
-52.5
-49
-41.5
-34
-29.8
-30.3
-34.8
-41.8
-49.2
-55.6
-60
-62.1
-62.8
-63.6
-65.4
-68.3
-71.3
-73.1
-73.3
-72.5
-72.1
-73.2
-76.5
-82.5
-91.5
-103
-114.4
-120.5
-114.9
-92.7
-54.1
-5.5
43.2
83.1
110.2
125.9
134.7
140.1
142.3
139.4
129.8
114.5
96.9
80.9
69.3
62.4
59
56.6
52.7
45.4
34.3
20.7
8
-0.9
-4.1
-2.3
2.4
8.2
14.1
19.7
24.5
27.6
28.1
26.8
25.2
25.4
27.5
29.7
29.1
24
15.1
5.7
-1
-3.8
-4.4
-5.9
-10.6
-18.2
-26.6
-33.5
-38.6
-43.7
-50.6
-58.5
-64.6
-65.5
-61.1
-55
-51.5
-52.1
-53.4
-50.8
-42.3
-31.9
-27.2
-33.6
-50
-69
-82.6
-87.9
-88.7
-91.3
-99.1
-109.3
-115.6
-113.8
-105.8
-97.9
-96.2
-101.8
-111
-119.5
-125.9
-132.8
-142.4
-152.5
-155.7
-143.5
-112.3
-66
-14
34.1
72.1
98.3
113.6
119.6
117.8
110.3
99.1
85.7
71
55.9
42.4
33.3
29.9
29.6
27.1
18.1
3.2
-12
-20.6
-20
-13.7
-7.8
-6.1
-7.6
-8.2
-5.3
0.4
5.5
7.7
7.3
6.2
5
2.3
-3.6
-11.7
-17.7
-17.7
-10.8
-1.7
3
-1.3
-13.7
-28.9
-41.1
-47.4
-49.3
-50.6
-53.5
-57.5
-59.4
-56.5
-48.6
-38.7
-31
-28.3
-30.7
-36
-41.1
-44.5
-46.1
-47.4
-49.3
-52.1
-55.4
-58.3
-60
-60
-58.4
-55.7
-53.2
-51.6
-51.3
-51.9
-53.5
-56.9
-63
-71.6
-80.6
-86.9
-89.1
-88.8
-89.7
-94.2
-101.3
-107.5
-109.9
-108.7
-106.1
-101.9
-90.9
-65.8
-23.1
31.4
84.2
121.7
138.3
139
134.6
132.8
134.3
133.7
125.9
111.4
95.3
84
79.7
80.6
82.9
84.1
84.7
86.1
88.8
91.3
91.3
87.8
82
76.5
73.9
75.4
81.3
91.6
106.6
126.6
150.4
174.9
195.8
209.2
213.9
211.8
207
203
201.4
202.1
204
206.6
210
214.1
217.5
218.3
215
208.6
201.8
197.1
194.2
190
180.7
165.1
146.7
131.3
123.9
124.9
130.6
135.9
137.7
136
132.8
129.9
128.5
129.4
133.1
139.4
146.4
150.5
148.9
141.3
130.8
121.3
115
110.9
106.7
101.3
96.3
94.5
96.6
100.4
102.5
101.3
98.4
97.1
98.6
99.9
95.7
82.4
60.9
37.1
17.6
6
1.2
-0.1
-0
3.2
14.4
37.9
73.9
117.1
158.9
191.1
209.9
216.5
214.9
208.9
200
187
169.2
147.7
126.7
110.9
102.6
100.3
100.1
98.3
94.1
89.4
86.5
85.8
85.2
81.8
74.2
63.3
51.6
40.8
30.8
20.9
10.9
2.3
-3.1
-4.4
-3.4
-3
-6.2
-13.2
-21.8
-29.1
-33.6
-36.5
-40.6
-47.9
-58.2
-68.5
-75.1
-76.5
-73.7
-70.1
-68.7
-70.7
-75.2
-80.3
-84.7
-87.6
-89.3
-90.7
-93.5
-99.1
-108.3
-119.6
-129.9
-136.1
-137.5
-136.5
-136.6
-140.4
-147.1
-154.4
-159.7
-161.9
-161
-157.1
-150.6
-143.5
-139.9
-143.9
-156.4
-172.8
-185.3
-188.3
-182.3
-172.5
-162.7
-149.2
-122.8
-77.5
-22.7
14.6
-0.2
-87.4
-235.1
-397.3
-513.1
-538.2
-469.7
-347
-229
-160.1
-148.5
-169.3
-187.6
-183.3
-161
-138.6
-129.8
-132.8
-135.3
-127.7
-110.7
-93.6
-83.6
-79.6
-73.7
-59.4
-36.4
-9.7
15.7
38.9
60.9
81.5
97.8
106.8
109.5
110.9
116.9
130.4
149.5
170.7
191
209
223.2
231.5
232.9
229.9
228.9
236.9
256.2
282.6
307.3
323.5
329.8
329.6
327.6
325.3
321.7
316.4
312
314
325.7
345.4
367
385.3
400.4
417.7
443.5
479.8
523.2
568.5
612.8
656.4
699.5
739
769
785
787.6
781.5
770.7
754.6
729.2
693.7
655.6
628.9
626.2
650.4
692
735.8
769.4
790
803.2
817.5
838.1
865.1
894
920.1
940.2
955.1
968.4
984.9
1007.8
1036.4
1066.2
1091.4
1109.2
1120.7
1130.1
1140.2
1150
1155.4
1153.3
1145.7
1140
1144.6
1163.3
1192
1220.7
1238.9
1240.2
1224.4
1195.1
1157.6
1117.8
1083.8
1065.1
1070.9
1104.7
1161.3
1226.8
1284.5
1321.2
1332
1319.7
1289.7
1245.1
1185.2
1108.5
1017.9
923.7
841.5
784.2
754.1
738.1
713.5
658.8
565.9
446.4
325.2
225.9
155.6
99.1
29.6
-70.4
-191.9
-300.2
-357.2
-352.2
-316.1
-308.3
-379.8
-540
-751.4
-957.1
-1119.9
-1245
-1368.9
-1527.2
-1725.3
-1935.3
-2115.5
-2236.2
-2293.3
-2302.9
-2287.1
-2263.9
-2243.7
-2231.8
-2229.2
-2232.3
-2232.7
-2221.1
-2191.7
-2144.5
-2083.5
-2012.3
-1933.5
-1850.1
-1768.7
-1699.7
-1653.3
-1635.8
-1647.6
-1684.6
-1739.7
-1805.2
-1872.7
-1933.9
-1982.2
-2015
-2033.8
-2041.3
-2038.8
-2023
-1987.7
-1926.9
-1838.6
-1727.4
-1604.1
-1482.8
-1377.4
-1298.3
-1250.2
-1232.5
-1240.7
-1268.1
-1306.7
-1347.9
-1382.6
-1402.8
-1402.7
-1378.9
-1330.9
-1261
-1174.8
-1082.2
-994.9
-922.8
-869
-828.1
-790.3
-748
-700.4
-653
-611.4
-576.1
-540.6
-495.4
-433.9
-355.9
-267.3
-176.1
-88
-3.5
83
180.4
296.1
431.4
580.5
735.4
892.5
1058.1
1245.4
1465
1715.8
1982.4
2243.6
2483.4
2696.6
2886.2
3054.4
3197.6
3308.5
3384.3
3430.3
3457.3
3474
3481.6
3476.4
3457.1
3431.3
3413.7
3418.7
3451.3
3503.3
3556.9
3592.9
3601.1
3583.8
3549
3494.6
3393.3
3194.9
2852.6
2365.9
1808.1
1314.2
1022.2
1001.5
1214.2
1538.3
1838
2031.9
2115.8
2131.5
2115.8
2073.7
1992.1
1870.7
1737
1628.4
1560.3
1513.8
1456.2
1374
1286
1220.8
1177.2
1107.2
941.1
638.2
223.1
-223.5
-613.2
-900.4
-1098.3
-1253.3
-1403
-1551.8
-1678.3
-1761.3
-1799.7
-1809.6
-1807.8
-1797.1
-1767.5
-1708.3
-1619.4
-1512.1
-1401.1
-1296.5
-1202.7
-1122.5
-1060.9
-1023.4
-1011.9
-1020.8
-1039.2
-1055.9
-1064.3
-1063.6
-1056.8
-1048.4
-1043.8
-1048.8
-1067.2
-1097.4
-1130.8
-1155.4
-1164.2
-1160.9
-1157
-1161.8
-1173.7
-1181.4
-1176
-1159.5
-1142.5
-1128.8
-1105.8
-1051.3
-954.9
-831.9
-712.9
-613.5
-514.2
-375.2
-179
35.4
182.8
185.1
26.4
-237
-517.5
-753.1
-931.4
-1065.9
-1156.5
-1177.8
-1107.4
-965.3
-822.1
-761.6
-827.6
-998.6
-1209.3
-1398.8
-1544.7
-1660.7
-1768.2
-1871.7
-1957.4
-2009.8
-2027.5
-2024
-2014.3
-2003.3
-1985.1
-1952.7
-1907
-1857.7
-1814.9
-1781.7
-1751.9
-1716.8
-1672.7
-1624.4
-1580.2
-1544.2
-1512.6
-1476.2
-1429
-1373.6
-1319.9
-1277.5
-1248.8
-1227.8
-1206.2
-1179.1
-1146.9
-1110.9
-1069.1
-1015.4
-945.1
-859.9
-769.1
-684.6
-614.7
-560.4
-517.9
-483
-454.9
-435.7
-427.9
-431.6
-443.2
-455.7
-459.1
-442.2
-395.3
-315.7
-210.7
-97.4
3
73.6
108.6
114
102.7
87
74.1
66.8
67.1
78.7
104.4
141.1
176.8
193.8
179.2
135.5
83.8
55.9
79.3
164.1
299.3
459.4
617.2
754.2
864.5
952.4
1026.4
1093.7
1157.4
1216.3
1267.3
1307.6
1337
1357.6
1371.4
1379.8
1382.5
1379.7
1373.1
1365.6
1360
1358.1
1360.6
1368.6
1383.7
1405.6
1430.8
1452.7
1465.2
1467.3
1465
1468
1484.7
1517.3
1561.2
1608.1
1649.9
1680.9
1697.3
1693.7
1660.8
1586.7
1462
1289.8
1092.8
912.6
795.7
770.7
828.7
920.4
975.8
938.5
794.6
579
356
185.9
98.6
88.3
127.6
186.9
247.8
302.6
347.7
378.4
389
378
350.9
318.4
290
266.9
238.4
185
88.7
-56.1
-236.7
-427.2
-602.6
-752
-881.1
-1002
-1117.9
-1218.2
-1288.2
-1326.2
-1352.1
-1397
-1482.6
-1605.2
-1739.5
-1857
-1942.7
-1995.9
-2016.1
-1990
-1895
-1716.7
-1467.3
-1184.4
-910.3
-666.6
-442.9
-209.8
54.7
347.1
639
897.1
1104.4
1267.9
1409
1546.5
1684.8
1816
1930.9
2029.2
2120.4
2217.2
2327.3
2450.8
2582.6
2715.7
2840.5
2946.2
3028.2
3103
3219.2
3448.8
3854.9
4452.9
5191.9
5972.7
6694.3
7294.1
7758.7
8102.9
8344.1
8494.4
8570.6
8600
8606.7
8587.6
8506.4
8319.3
8009.8
7595.4
7089.8
6453.4
5587.3
4395.4
2876.2
1169.3
-490.7
-1889.1
-2932.4
-3667.4
-4214.8
-4675.5
-5082.1
-5415.6
-5655
-5810.9
-5919.9
-6015.9
-6109.7
-6189.8
-6239.1
-6247.2
-6215.1
-6152.8
-6078
-6012.3
-5975.3
-5975.9
-6008.6
-6058.4
-6110.3
-6153.3
-6177.5
-6170.4
-6121.2
-6031.6
-5922.8
-5825.3
-5756.6
-5702.9
-5623.2
-5478.2
-5263
-5017.4
-4804.6
-4670.9
-4617.1
-4601.2
-4569
-4489.5
-4367.8
-4232.4
-4108.2
-4000.2
-3897.8
-3791.2
-3683.2
-3583.8
-3494.6
-3398
-3261.7
-3057.3
-2776.1
-2430.9
-2043.7
-1630.2
-1196
-743.4
-282.1
170
595.6
990.4
1364.6
1731.2
2088.5
2412.2
2665.5
2821.7
2884
2886.4
2874.8
2880
2902.2
2916.9
2898.1
2841.2
2768.8
2717.3
2713.9
2761.1
2837.3
2912.5
2964.5
2986.6
2982.1
2953.3
2893.9
2789
2621.9
2382
2067.6
1685.5
1248.5
772.7
277.6
-215.2
-683.8
-1109.8
-1481.1
-1793.8
-2050.8
-2260.2
-2432
-2576.8
-2704.3
-2822
-2935.1
-3046.3
-3155.4
-3259.4
-3352.6
-3427.7
-3477.9
-3500
-3496.6
-3475.8
-3447.2
-3417.6
-3387.9
-3353.5
-3308
-3248
-3174.7
-3093.8
-3012.1
-2934.9
-2864.6
-2800.5
-2740.2
-2681
-2620.9
-2557.5
-2486.9
-2402.3
-2295.4
-2160.7
-2000.7
-1827.9
-1660.2
-1509.5
-1373.1
-1233
-1065.8
-858.2
-615.1
-354.5
-93.9
161.7
419.6
688.1
965.4
1239.8
1501
1751.5
2007.8
2287
2590.5
2898.2
3178.7
3408.4
3587.5
3742.5
3914.5
4140.9
4439.1
4799.1
5189.9
5575.8
5936.1
6272.9
6599.3
6913.7
7180.2
7334.2
7318
7124.1
6814.7
6499.9
6284.7
6220.1
6290.7
6446.8
6656.4
6941.6
7370.7
8011
8870.4
9870.8
10873.7
11748.7
12441.4
12995.2
13511.6
14078.3
14722.7
15426
16186.1
17067.1
18178.6
19582.3
21188.8
22728.8
23839.8
24227.3
23807.6
22746.4
21377.4
20055.8
19030.7
18392.6
18098.6
18037.9
18094.2
18180.5
18246.3
18268.6
18238.5
18153.6
18018.6
17851.1
17680.8
17527
17355.8
17039.6
16358.6
15069.8
13029.4
10303
7188.4
4107.8
1407
-837.2
-2886.4
-5235.5
-8378.7
-12569.3
-17693.5
-23310.5
-28813.2
-33613.6
-37270.1
-39539.4
-40382.6
-39958.7
-38601.6
-36753.6
-34847.4
-33177.2
-31829.5
-30716
-29685.3
-28636.2
-27562.2
-26514.6
-25529.5
-24581
-23588.4
-22461.7
-21153
-19692.9
-18201.3
-16873.8
-15933
-15551.8
-15776.2
-16488.9
-17446.9
-18375.6
-19074.8
-19480.6
-19661.4
-19764.9
-19947.3
-20319.3
-20924.2
-21755.9
-22802.9
-24088.9
-25672.5
-27587.8
-29755.5
-31929.4
-33733.4
-34780
-34799.7
-33703.2
-31552.5
-28494.3
-24724.1
-20501.6
-16166
-12089.6
-8566.4
-5707.8
-3430.1
-1548.4
97.7
1585.7
2951
4267.2
5670.2
7291.7
9157.5
11144.4
13040.6
14663.3
15943.1
16919.9
17672.2
18250.2
18664.3
18919.1
19046.1
19100.2
19128.4
19145.2
19140
19104.4
19052.4
19013.7
19010
19039.2
19080.9
19115.4
19136.6
19148.9
19154.3
19143.4
19101
19020.3
18912.9
18806.4
18730.2
18698.5
18701.3
18709.3
18688.5
18617.3
18495.9
18341.9
18176.8
18012
17845.8
17671.9
17490.9
17310.6
17135
16950.7
16728.3
16442.9
16099
15737
15410
15147.8
14936.3
14730.4
14488.4
14198.5
13872.5
13519.3
13126
12668.6
12140.4
11563.1
10961.7
10323.3
9586
8686.4
7635.7
6559.2
5646.6
5038.2
4729.1
4572.9
4389.4
4090.1
3718.3
3366.4
3044.4
2616.2
1871.2
682
-880.2
-2567.2
-4102.9
-5341.8
-6319.4
-7163.7
-7949
-8612.8
-8995.3
-8966.9
-8543.4
-7911.1
-7350.7
-7116.9
-7345.6
-8030.6
-9068.5
-10334.2
-11739.7
-13245.7
-14824.8
-16412.8
-17894
-19143.5
-20098.7
-20794.4
-21320.9
-21725.3
-21939.4
-21808.6
-21215.5
-20209.7
-19033.4
-18011.3
-17375.4
-17146
-17140.7
-17084.8
-16733.4
-15931
-14605.8
-12744.5
-10393.2
-7677.3
-4808.9
-2051
350
2230.2
3543
4353.5
4800.4
5040.4
5194.5
5316.3
5400.2
5420.4
5368.3
5254
5073.2
4781.5
4321.8
3698.3
3033.8
2534.9
2358.8
2467.8
2589.6
2339.3
1434.1
-141
-2127.9
-4145.2
-5879.8
-7194.5
-8105.4
-8685
-8985.3
-9033.8
-8877.8
-8611.4
-8346.7
-8150.6
-8002.8
-7812.3
-7478.9
-6949.2
-6229.3
-5357.7
-4377.5
-3333.8
-2289
-1320.3
-480.7
251.6
982.2
1838.3
2868.9
3983.6
4988.6
5697.5
6032.3
6034.2
5782.1
5305.3
4575.9
3591.2
2452.4
1338.1
365.2
-544.8
-1643.8
-3141.1
-4927.3
-6459.2
-6942.8
-5734.4
-2714.6
1611.1
6347.4
10623.5
13929.7
16198.3
17640.9
18501.3
18898.3
18833.5
18306.1
17417.6
16385
15458.8
14815.6
14495.5
14415.5
14436.1
14429.6
14316.4
14061.7
13657.5
13109.5
12436.1
11666.8
10829.1
9927.3
8930.7
7787.6
6463.2
4978.6
3423
1925.7
599.1
-515.3
-1467.5
-2375
-3365.2
-4514.3
-5813.2
-7172.8
-8461.4
-9552.6
-10361.5
-10861.5
-11084
-11108.1
-11041.1
-10987.8
-11013.7
-11122.1
-11263.6
-11379.2
-11453.3
-11536.3
-11718.8
-12074.9
-12615.7
-13287.2
-14006
-14694.3
-15283.2
-15687.5
-15788.6
-15458.8
-14619
-13291.2
-11601.3
-9733.9
-7874.1
-6176
-4761.3
-3720.8
-3092.4
-2825.4
-2772
-2734.8
-2554.3
-2180.3
-1678.8
-1172.7
-764.4
-491.2
-331.8
-239.7
-168
-74.8
77.8
314.8
630.1
981.9
1309.9
1568.2
1747.1
1868.6
1961.7
2038.7
2089.7
2093.1
2032.5
1906
1729.8
1534.8
1359.4
1236.5
1180.7
1182.7
1218.4
1266.6
1321.9
1390.4
1474.1
1558.5
1617.6
1633.7
1614.5
1592.4
1604.7
1672.8
1793.2
1948.5
2123.3
2314.5
2528
2767.2
3025.5
3286
3529.6
3743.8
3928.5
4097.4
4272.7
4477.3
4724.2
5010.2
5316.2
5615.4
5885.5
6115.7
6307.4
6466.6
6596.4
6692.9
6748
6754.8
6713.7
6633.1
6526.8
6408.1
6284.1
6153.6
6008.6
5839.6
5640.3
5408.5
5143.4
4843.1
4504.5
4129.1
3728.6
3325.7
2946.4
2608.7
2314.9
2052.8
1806
1564
1327.4
1103.5
898.6
712
537.1
367.2
201.4
45.7
-91.2
-204.4
-297.9
-382.5
-470.6
-569
-676.7
-787.3
-895
-997.5
-1095.6
-1188.5
-1272.9
-1344.3
-1402.9
-1454.8
-1509.2
-1571.5
-1640
-1709.5
-1777.7
-1850
-1935.2
-2037.2
-2148.7
-2254.5
-2339.9
-2399.5
-2437.4
-2460.3
-2470.7
-2466.4
-2445.9
-2414.6
-2384.2
-2365.3
-2360.4
-2363
-2363.6
-2356.8
-2343.9
-2328.4
-2310.7
-2287
-2253
-2209.8
-2163.4
-2119.2
-2076.1
-2026.3
-1962.8
-1886.5
-1809.1
-1745.8
-1705.2
-1683.4
-1666.3
-1638.9
-1593
-1530.1
-1457.6
-1384.3
-1317.3
-1261.3
-1218.6
-1189.2
-1171.2
-1162.3
-1161.8
-1171.2
-1192.4
-1224.6
-1263.6
-1302.9
-1334.7
-1351.7
-1346.4
-1312.6
-1249.5
-1165.8
-1079.2
-1010.1
-971.4
-962.5
-971.8
-985.7
-996.6
-1005
-1014.8
-1026.6
-1035.7
-1034.5
-1016.1
-976.3
-914.4
-832.4
-736.6
-636.4
-541.3
-455.3
-373.9
-287.1
-186.8
-74.5
38.3
137
212.7
267.9
313.5
361.7
418.5
482.8
549.8
617
686.8
765.2
857.3
963.3
1078.2
1194.2
1303.6
1401
1483.4
1548.8
1594.9
1619.6
1621.3
1600.1
1558
1500
1433.9
1369.4
1316.2
1281
1264.5
1262.1
1265.5
1265.9
1256.5
1233.4
1196
1147.4
1093.5
1041.8
999.1
969
951.6
944.3
943.7
946.4
949.4
949.5
944.3
933.2
918.4
903.4
891.3
883.1
877.6
873.4
870.2
868.5
867.5
864.6
856
839.7
818
796.9
783.5
781.5
789.6
802.5
814.9
823.6
828.3
829
824.3
811.1
787.2
753.6
715.4
679
648.1
621.3
593.4
559.9
521.1
482.2
450.1
427.5
410.9
392.6
365.8
329.1
286.9
246.3
212.9
187.9
169.2
152.9
135.9
117.3
98.6
82.7
72.6
69.3
71.3
75.3
78.7
81.7
87.1
98.3
115.8
136.5
155.4
168.2
173.9
174.6
173.4
172.6
172.4
171.7
168.1
159.7
144.7
121.3
87.6
40.9
-19.6
-91
-165.7
-233.6
-287.9
-328.9
-364.5
-403.5
-449.1
-496.1
-535.6
-562.6
-580.6
-598.3
-623
-656.2
-695.9
-741.7
-797.6
-868.2
-952.1
-1039.4
-1117.2
-1177.5
-1223
-1264.5
-1313
-1373.6
-1443.6
-1516.6
-1586.4
-1649.7
-1707
-1762
-1819.9
-1884.6
-1955.5
-2027.6
-2095.9
-2160.8
-2229.2
-2309.1
-2400.9
-2495.2
-2579.6
-2649.8
-2715.7
-2795.7
-2903.9
-3039.6
-3188.4
-3331.2
-3453
-3544
-3595
-3592.6
-3521.2
-3369.2
-3133.4
-2820.4
-2444.6
-2028.2
-1600.1
-1192.3
-831.1
-527.1
-273
-51.7
149.6
331.7
488.5
620.5
742.4
876.4
1033.5
1197.9
1330.6
1392
1367.4
1277.6
1164.7
1064.1
984.3
907.5
810.7
687.5
556.6
448.9
387.6
374.4
391.4
414.8
427.9
425.8
411.8
390.5
364.9
337.9
314.4
300.6
301.1
314.9
336.7
359.9
381.7
403.2
426
446.9
458.4
455
442.6
442.1
482
582.1
739.4
926.3
1104.5
1245.1
1341.7
1409.2
1469.8
1537.6
1613.8
1690.9
1762.9
1830.5
1898.9
1971
2043.1
2106
2150.9
2176.2
2190.5
2209.5
2250
2323.3
2430.8
2564.6
2710.7
2854.1
2982.9
3088.5
3164.3
3203.5
3199.7
3150
3059.8
2943.9
2823.1
2715.4
2628.4
2556.2
2484.5
2399.9
2297.6
2182.9
2067.2
1962.4
1877.4
1817.6
1784
1771.9
1770.8
1767.7
1755.3
1737.9
1729.4
1742.4
1775.4
1809
1816.8
1781.9
1709.4
1621.9
1544.2
1487.3
1444
1397.5
1334.6
1252.1
1154.2
1046
929.8
807.9
686.2
574.3
479.6
401.7
330.8
255.1
169.5
80.7
2.3
-55.1
-92.2
-121.3
-157.8
-209.2
-269.7
-324.8
-360.8
-373.5
-369.6
-361.9
-362.8
-380.9
-421.7
-489.9
-588.6
-716.8
-867.2
-1025.5
-1175.1
-1301.3
-1395
-1453
-1476.7
-1469.9
-1436.6
-1381.1
-1307.5
-1221.3
-1130.1
-1042.6
-967.1
-909.3
-871.5
-854.5
-860.1
-892.9
-959.1
-1063.5
-1205.7
-1378.2
-1568.2
-1761.2
-1946.3
-2119
-2280.9
-2436.1
-2586.4
-2728.4
-2855.1
-2959.3
-3037.9
-3092.8
-3128.6
-3150.6
-3163.7
-3173.5
-3186.3
-3206.1
-3230.1
-3245.7
-3233.2
-3173.9
-3058.6
-2891.4
-2687.7
-2468.4
-2254.3
-2063.7
-1911
-1804.8
-1746.4
-1728.4
-1737.7
-1760.3
-1786.7
-1814
-1844.7
-1883.2
-1932.6
-1993.6
-2063.3
-2136.2
-2205
-2262.1
-2302.1
-2323.8
-2330.1
-2327
-2321.2
-2317.9
-2319.8
-2327.2
-2338.8
-2353.7
-2371.8
-2392.5
-2412.7
-2425.8
-2422.7
-2397.3
-2350.7
-2292.1
-2233
-2179.4
-2127.7
-2068.6
-1997.9
-1926.4
-1880.5
-1891.2
-1975.8
-2123.8
-2295.4
-2434.8
-2492.3
-2444
-2300.2
-2096.5
-1874.3
-1661.2
-1461.3
-1261.1
-1045.8
-813.5
-578.2
-360.3
-171.4
-5.2
160
349.5
580.2
854.6
1162.6
1487.8
1813.2
2125
2415.8
2685.9
2942.8
3196.4
3451.6
3702.8
3932.7
4119.2
4244.2
4300.7
4293.4
4235
4141.1
4027.2
3908
3796.7
3703.3
3630.8
3574.1
3522
3462.2
3387
3295.8
3193.5
3086.1
2977.8
2869.2
2759
2645.6
2528.9
2411.5
2298
2195.1
2109.9
2047.9
2011.4
1997.1
1996.2
1995.9
1983.1
1949.3
1893.9
1824.6
1753.2
1689.4
1636
1590.1
1548.1
1512.1
1490.1
1491.8
1520.4
1569.3
1625.6
1678.2
1723.8
1767.3
1816.7
1877.5
1952.5
2045.1
2161.3
2308.6
2490.9
2704
2938.3
3184.4
3439.2
3704.6
3982.3
4267.4
4547.7
4809.9
5045.3
5253.6
5438.7
5605.1
5754.9
5890.1
6015.1
6136.5
6259.4
6382.4
6494.5
6577.5
6612
6586.6
6505.2
6388
6260.9
6136.8
5999.1
5803.5
5504.1
5091.8
4617.3
4175.2
3853.4
3679.9
3607.2
3548.4
3436.4
3261
3053.8
2839.2
2598.4
2283.3
1867.8
1388.2
929
558.9
271.2
-16
-393.7
-880.4
-1392.5
-1792.9
-1981.6
-1959
-1818.2
-1676.9
-1606.5
-1606.2
-1632.7
-1652.3
-1672.6
-1735.2
-1879.6
-2111.7
-2399.6
-2699
-2988.8
-3288.7
-3644.1
-4087.2
-4605.1
-5149.1
-5687.7
-6265.2
-7010
-8062.2
-9454.9
-11032.5
-12481
-13472.6
-13835.9
-13641
-13138
-12598.1
-12168.2
-11835.2
-11501.5
-11093.8
-10613.3
-10103.4
-9583.2
-9021.5
-8374.2
-7646.6
-6916.5
-6294.5
-5857.3
-5612.5
-5520.2
-5540.5
-5657
-5852.6
-6070.6
-6207.6
-6160.7
-5894.2
-5471.1
-5020.9
-4665.3
-4455.7
-4360.9
-4303
-4208.1
-4040.3
-3808.9
-3555.3
-3329.8
-3161.9
-3034.3
-2878.8
-2608.7
-2177.1
-1620.8
-1051.5
-589.5
-286
-96.5
72.2
276.3
484.7
605.1
565.5
380.1
142.9
-42.1
-134.2
-171.4
-218.5
-299.3
-372.2
-367.2
-246.5
-33.4
213.6
453.9
698.4
993.9
1376.6
1836.3
2316.6
2748.3
3084.1
3314.3
3460.8
3564.2
3672.1
3822
4017.3
4206.4
4290.6
4173.2
3828.1
3340.7
2884.5
2641.7
2719.9
3120.3
3769.6
4579.5
5481
6416.5
7318.4
8111.7
8751.7
9260.5
9721.8
10225.9
10805.6
11413.3
11955.1
12350.1
12567.8
12621.5
12541.1
12355.4
12099.6
11827.4
11603.5
11476.9
11456.3
11510
11585.6
11628.1
11581
11383
10982.7
10373
9614.5
8809.2
8025.6
7230.1
6290.3
5070.8
3557.3
1910.2
392.4
-783.6
-1576.3
-2110.9
-2556.5
-2988.3
-3344.4
-3503.3
-3410
-3141.6
-2868
-2755.9
-2901
-3335.3
-4074.1
-5135.1
-6498.9
-8050
-9569.8
-10809.6
-11598.8
-11911.4
-11844.4
-11535
-11085.4
-10544.6
-9937.5
-9297.1
-8664.9
-8069.6
-7513.9
-6990.9
-6510
-6103.2
-5800.2
-5596.8
-5450.9
-5312.3
-5160.3
-5010.9
-4888.7
-4791
-4680
-4508.8
-4252
-3908.8
-3478.8
-2940.9
-2267.6
-1465.1
-600
224.4
929.8
1514.1
2046.2
2605.8
3218.1
3833.8
4365.9
4747.6
4964.1
5043.2
5025.3
4943
4822.3
4689.9
4571.9
4482.6
4420.4
4379
4366.3
4409.2
4535.1
4743.2
4990.4
5208.8
5342.8
5381.1
5358.9
5332.7
5345.3
5407.5
5503.7
5611.8
5720.8
5832.1
5949.6
6069.1
6178.5
6265.7
6327.2
6367.4
6392
6403
6399.2
6381
6349.4
6298.4
6209.9
6059.4
5830.2
5518.5
5115.4
4573.3
3788.9
2635
1037.7
-947.8
-3122.9
-5214.8
-6995.9
-8375.3
-9407.6
-10224.2
-10942.4
-11618
-12258.3
-12865
-13458.3
-14061.3
-14668.1
-15230.9
-15683.9
-15983.8
-16133.2
-16170
-16135.8
-16051.6
-15919.2
-15739.1
-15522.4
-15284.2
-15025.5
-14725.3
-14354.1
-13900
-13386.6
-12864.1
-12381.6
-11959.7
-11587.3
-11240.2
-10906.8
-10595.8
-10320.7
-10073.2
-9811
-9471.9
-9008.2
-8420.2
-7764.4
-7131.8
-6607.4
-6230
-5974.6
-5763.6
-5504.6
-5135.1
-4651.7
-4104
-3556.5
-3041.8
-2537.1
-1983.9
-1332.8
-580.5
234.9
1074.5
1941.7
2886.6
3963.3
5174.7
6447.4
7662.1
8716.2
9572.8
10261.6
10833.9
11312
11670.9
11866.3
11885
11778.6
11654.8
11632.1
11788.9
12139.7
12647.2
13254.8
13910.6
14567.2
15168.8
15647.4
15942.3
16032.1
15949.6
15762.6
15532.1
15280.8
14998
14673.6
14328.8
14012.1
13763.8
13579.6
13409.9
13196.3
12914.4
12587.3
12256.8
11941.1
11616.4
11238.8
10788
10291.7
9810.8
9395.7
9053.3
8751.1
8454.6
8162.9
7909.2
7725.9
7608.2
7513
7396.5
7258.3
7145.8
7109.2
7144.7
7178.2
7110.4
6881.4
6489.4
5929.3
5096
3747.8
1596.3
-1503.4
-5386.7
-9569.5
-13433.7
-16506.8
-18656.7
-20069
-21027
-21655.8
-21820
-21247.6
-19780.5
-17554.8
-14975.7
-12509.7
-10458.3
-8873.4
-7649.6
-6683.4
-5958.3
-5501.5
-5282.8
-5175.2
-5022.9
-4756.7
-4453.2
-4283.3
-4396.3
-4829.1
-5502.4
-6284.1
-7063.7
-7785
-8435.6
-9016.2
-9513.2
-9884
-10059
-9966
-9573.8
-8935.5
-8194
-7533.1
-7094.2
-6908.9
-6892.9
-6903.7
-6821.7
-6605.6
-6293.1
-5959.6
-5668.6
-5445
-5280.3
-5157.3
-5072
-5036.4
-5065.8
-5161
-5300.7
-5442.9
-5530.5
-5496.8
-5280.1
-4856.3
-4279.4
-3692.7
-3279.8
-3165.9
-3332.1
-3613.4
-3795.7
-3746.1
-3480.9
-3128
-2831
-2683.1
-2735.7
-3038.9
-3637.3
-4498.8
-5445.1
-6176.6
-6410
-6033.7
-5154.9
-3996.5
-2731.1
-1393.3
65.7
1646.4
3223.8
4593
5589.3
6167.9
6381.1
6295.2
5944.6
5368.6
4684.4
4101.5
3839.3
4005.1
4538.4
5270.3
6048.9
6823
7621.2
8458.3
9266.7
9922.2
10344.5
10580.9
10795.5
11162.6
11746.7
12463.4
13148.2
13677.3
14041.4
14313.4
14539.1
14640.9
14425.3
13699.3
12419.5
10756.2
9015
7460.8
6170.6
5027.2
3858.5
2616.1
1445.8
588.1
179.7
112.3
65
-305.2
-1150.4
-2346.4
-3584.5
-4565.1
-5153.4
-5406.7
-5480.4
-5501.1
-5496.6
-5416.9
-5208.1
-4875.4
-4488.8
-4139.3
-3889.4
-3759.1
-3749.6
-3864.7
-4094.7
-4375.4
-4581.5
-4601
-4453.8
-4338.2
-4512.3
-5053.4
-5679.7
-5823
-4957.3
-2964.8
-254.1
2475.2
4645
6068.7
6892.9
7312.9
7346.4
6865.1
5824.2
4441.3
3137.4
2282.9
1974.2
2027.3
2174.2
2272.4
2357.8
2528.6
2799
3061.7
3174.5
3073.7
2808
2477.5
2149.1
1824.7
1476
1099
731.9
427.6
214.4
80.7
-6.5
-71.8
-118.9
-140.6
-139.9
-138
-165.1
-239.4
-354.5
-484.5
-603.2
-702.4
-796.5
-910.6
-1063.4
-1256.4
-1476.7
-1706.6
-1932.5
-2146.7
-2344.8
-2523.8
-2681.7
-2817.8
-2930.5
-3015.9
-3068.9
-3088.7
-3083.3
-3068.2
-3058.6
-3062.7
-3080.7
-3110.2
-3150.8
-3202.5
-3261.9
-3323.2
-3386.2
-3462.5
-3568.3
-3705.2
-3848.3
-3959.3
-4020.1
-4053.7
-4103.9
-4183.4
-4241.4
-4197.3
-4026.9
-3821.9
-3742.6
-3867.9
-4054.1
-3942.8
-3160.9
-1595
460.3
2412
3683.8
4026.8
3620.8
2913.4
2329
2053
2011.3
2011.4
1910.8
1692.7
1429.5
1198
1024.6
889
761.1
630
504.9
399
317
254.9
208.6
178.9
169.1
179
200.4
220.7
230.3
230.3
232.7
254
303
374.2
450.3
514.4
561.4
599.8
643.2
696.6
751.5
792.3
809.2
806.6
799.9
804.5
825.7
857.4
889.8
918.7
949.1
989.6
1044.6
1109.2
1170.6
1215.6
1237.5
1238.4
1227.9
1216.9
1213.1
1218.6
1229.6
1239.1
1240.4
1229.8
1208.2
1180.5
1151.9
1125.2
1099.5
1071.1
1036.8
996.2
951.8
907.3
864.7
824.9
787.4
752.9
723.2
701.7
692.6
699.7
724.1
762.2
804.2
837
850
840.8
816.9
791
773.4
767.4
771.2
783.2
805.9
844.3
899.2
963.2
1023
1066.1
1088.5
1094.9
1093.5
1089.6
1082.7
1069.3
1048
1021.8
996.2
975
958
942.1
924
902.2
876.9
848.6
816.5
778.9
734.3
683
627
571.2
523.2
492.5
488.4
516.6
574.9
652.7
732.9
797.7
834.4
839.2
816.7
776.6
729.6
683.7
643.9
613.1
593.8
588.4
597.9
620.1
648.5
675.4
695.8
711.1
726.8
747.7
771.7
790.1
792.6
776.3
748.7
722.9
708.5
703.8
698.5
682.3
653.5
620.3
594
580.6
578
581.1
587.5
599.1
616.6
634.9
643.7
635
610.6
581.9
560.7
550.3
543
529
506
481.8
466.6
461.2
453.2
425.6
369.6
291.9
208.5
130.5
54.7
-32.9
-143.9
-275.4
-409
-523.8
-610
-675.3
-736.7
-806.6
-882.5
-948.6
-987.2
-991
-969
-942.3
-933.6
-957.2
-1012.9
-1088.4
-1166.3
-1232.1
-1280.5
-1315.6
-1346.8
-1381.9
-1423.1
-1467.4
-1510.1
-1548.4
-1582.2
-1612.1
-1637.9
-1659.1
-1677.2
-1696.4
-1720.8
-1750.4
-1779
-1796.3
-1794.2
-1771.4
-1734
-1690.2
-1645.1
-1598.4
-1545.8
-1484.4
-1414.8
-1341.9
-1271.9
-1210
-1159.3
-1121
-1094.6
-1078.9
-1071
-1066.5
-1061.1
-1051.8
-1038.2
-1022.9
-1009.4
-999.3
-990.6
-977.6
-953.8
-916.1
-867.3
-815.3
-769.3
-735.7
-714.9
-702.6
-692
-678
-658
-632.1
-600.9
-564.6
-522.6
-475.1
-423.5
-371
-320.1
-271.3
-221.7
-166.6
-102.9
-31.5
42.3
112.2
175.5
234.8
297.4
369.9
453.5
542.9
629.8
708.7
780.7
853.3
935.5
1031.6
1139.1
1249.7
1355.2
1452.1
1542.5
1630.9
1720.1
1808.7
1892.4
1968.6
2039
2108.7
2183.3
2264.8
2351.5
2440.1
2529.2
2619
2710
2799.3
2881.4
2951.3
3008.6
3058.7
3110.1
3169.1
3236.5
3308.5
3380.4
3451
3523.5
3602.4
3689.4
3781.6
3872.8
3957.4
4032.9
4100.7
4162.4
4217.6
4263.8
4299.1
4324
4340.7
4348.2
4340.1
4307.4
4246.8
4169.1
4097.4
4053.8
4041.1
4034.1
3988
3863.1
3650.2
3378.2
3098.2
2851.5
2641.6
2426.7
2139.5
1721.9
1155.8
474.3
-251.6
-942.9
-1542.4
-2030
-2419.8
-2741.7
-3022.2
-3272.4
-3489.1
-3663.8
-3791.9
-3877.3
-3930.2
-3962.6
-3984.7
-4004.3
-4026.3
-4052.6
-4080.7
-4104
-4115.3
-4112.2
-4100.1
-4089.6
-4089.6
-4099.1
-4106.9
-4098.3
-4065
-4011.2
-3948.4
-3884.5
-3816.5
-3731.8
-3619.6
-3480.9
-3329.5
-3182
-3046.8
-2921.4
-2801.1
-2689.6
-2600.1
-2545.5
-2523.6
-2511.9
-2477.5
-2396
-2264.2
-2099
-1923.4
-1752.6
-1589.6
-1430.9
-1274.3
-1120.4
-968.2
-811.6
-643.7
-468.4
-308.1
-199.3
-174.9
-243.9
-384.3
-554.5
-716.7
-857.5
-990.5
-1140.8
-1321.9
-1522.3
-1708.8
-1844.1
-1906.9
-1901.4
-1852.4
-1791.6
-1745.9
-1730.9
-1752.7
-1810
-1892.8
-1979.6
-2037.4
-2029.3
-1928.9
-1734.4
-1472.7
-1189.3
-930.3
-723.7
-572.8
-462.4
-372.8
-293.1
-224.6
-174.3
-145.3
-129.4
-110.7
-74.6
-17.7
50.2
115.1
169.4
219.2
278.3
355.8
445.8
529.1
585.4
607.4
604.6
595.1
591.1
590.9
582.3
554.1
506
449
398.1
363.7
348.8
352.5
375.6
424
506.2
628.3
786.6
964.5
1133.1
1260.2
1321.9
1313.7
1252.9
1168
1083
1003.7
918.9
813.7
686.3
555.8
452.9
401.5
404
440.6
483.1
513.4
532.5
554.7
590.8
634.4
660.6
639.6
555.7
418.6
259
110.8
-6.3
-94
-166.4
-233.9
-293.2
-329.8
-331.6
-300.3
-252.9
-211.7
-190.6
-189.6
-199.3
-210.4
-219.8
-229.2
-238.5
-242.8
-234.8
-210.5
-173.2
-131.3
-92.7
-60.2
-31
-1.1
30.3
59.4
80
88.3
86.4
82.5
87.3
108.9
148
198.5
250.7
297.6
336.8
369.8
398.3
423.1
445.7
470.5
504.2
550.3
605.3
659.5
704.4
740.3
777
825.3
886.6
948.5
991.8
1003.2
983.3
945.8
908
881.9
872.1
878.2
898.9
932.4
975.1
1020.8
1063.9
1102.2
1137.5
1170.9
1197.5
1204.6
1176.3
1102.4
986.9
852.6
737
681.2
714.7
841.1
1033.2
1240.8
1411.6
1514.3
1551.5
1554.4
1561.8
1596.8
1656.8
1721.6
1773.1
1808.5
1839.3
1876.1
1914.3
1934.1
1915
1852.8
1764.2
1674.2
1597.3
1526.8
1443.7
1333.8
1200.3
1060.4
929.7
811.5
698.4
586.2
483.1
406.9
369.8
366.4
374.9
371.2
342.9
291.9
225.3
144.3
42.7
-84.5
-231.3
-380
-511
-616.4
-703.9
-790.3
-888.7
-1000.2
-1115.2
-1221.7
-1312.3
-1384.4
-1434.6
-1454
-1430.9
-1360.1
-1252.3
-1134.9
-1042.1
-999.1
-1010.6
-1061.3
-1126.6
-1187.1
-1237
-1282.1
-1331.6
-1390.5
-1457.5
-1528.6
-1602.3
-1680.9
-1768.5
-1866.8
-1973.9
-2085.2
-2195.6
-2301.3
-2400
-2492.1
-2580.5
-2670
-2765.8
-2869
-2975.5
-3077.7
-3169.8
-3253
-3334.3
-3421.2
-3513.5
-3601.2
-3669
-3705.8
-3711.8
-3698.1
-3678.7
-3661.7
-3645.7
-3623.7
-3590.6
-3549.5
-3510.7
-3485.7
-3479.5
-3487.9
-3500.1
-3506.2
-3503.8
-3499.5
-3505.2
-3529.8
-3572.7
-3622.9
-3665
-3688
-3693.1
-3692.7
-3702.1
-3728.3
-3763.3
-3788.2
-3784.6
-3745.6
-3679.4
-3601.5
-3522.2
-3438.6
-3336.2
-3198.7
-3017.8
-2797.1
-2547.6
-2280
-1996.6
-1688.8
-1339.8
-932.3
-460.5
60.5
593.1
1090.8
1520
1876.7
2181.5
2454.2
2687.3
2844.8
2891.7
2833
2724.4
2640.9
2624.5
2657.6
2689
2689.4
2684.6
2730.8
2853.1
3010.7
3131.5
3193.1
3273.4
3509.7
3987.2
4644.5
5285.3
5696.1
5783.9
5624.9
5392
5225.9
5152.7
5104.5
5008.3
4859.1
4719.7
4660.6
4699.8
4793.6
4876.2
4908.6
4896
4868.1
4846.8
4829
4794.5
4724.1
4613.9
4475.7
4327.5
4183.6
4049.2
3921.6
3795.3
3666
3531
3383.9
3210.8
2991.9
2711.5
2370.5
1992.1
1614.3
1274.1
993
774.1
608.6
483.9
385.9
295.7
189
44.9
-141.3
-349.9
-544.1
-689.5
-773.2
-808.6
-822.9
-838.4
-859.6
-876.7
-877.9
-860.5
-832.2
-803.7
-781.4
-765.9
-756.1
-754.1
-763.8
-785.8
-813.1
-832.2
-830.4
-803.1
-755
-695.8
-633
-568.5
-501.3
-432.5
-366.9
-310.4
-264
-222.2
-176.5
-123.2
-67.8
-21.7
6
15
14.2
15
23.8
38.8
53.7
62.8
64.3
58.7
46.6
27.4
1.6
-26.9
-51.5
-66.3
-70.6
-70.1
-72.9
-84.5
-103.1
-120.8
-127.8
-118.6
-95
-64.5
-35.5
-11.6
11.6
44
95.1
166.5
249.7
328.5
388
423.2
442.8
464.6
503.9
564.4
635.5
700.1
746.6
774.5
789.4
790.8
762.7
677.9
513.5
269.3
-26.5
-327.6
-590.7
-791.2
-926.9
-1008.4
-1049.5
-1062.2
-1058.9
-1052.4
-1052.4
-1058.8
-1063.4
-1060.9
-1061.1
-1088.2
-1161.1
-1270.4
-1372.9
-1415.6
-1375.6
-1282.8
-1207.1
-1216.9
-1345.7
-1589.9
-1929.8
-2342.6
-2788.5
-3192.1
-3459.3
-3538
-3473.4
-3390.3
-3392.3
-3465
-3495.5
-3433.6
-3469.4
-4035.1
-5549.1
-8047.2
-10987.6
-13434.6
-14542.7
-14019.3
-12239.6
-9949.1
-7796.4
-6036.3
-4573.6
-3226.2
-1946.9
-840
-26.1
468.2
685.9
640.5
278.2
-435.6
-1391.4
-2314.3
-2897.2
-2989.2
-2684.6
-2238.3
-1883.9
-1699.9
-1614.9
-1516.3
-1355.8
-1169.1
-1015.7
-910.8
-808.6
-641.9
-377
-38.7
307.2
594.4
792.2
917.9
1023.7
1163.4
1358.2
1579.1
1760
1837.6
1794.6
1677.9
1577.1
1576.2
1708.4
1943.6
2213.5
2454.1
2638.3
2779.3
2908.4
3045.9
3184.2
3294.2
3345.6
3328.2
3260.3
3177.6
3111.5
3069.1
3028.8
2955.5
2827.2
2655.9
2485.3
2364.9
2315.9
2313.1
2300.3
2228.4
2090.6
1925.8
1786.2
1693.8
1620.2
1507.3
1311.5
1037.6
732.1
444.7
190.3
-55.5
-322.7
-606
-854.6
-1004.6
-1030.3
-970.3
-903.3
-889.7
-923.8
-937.6
-856.8
-665.4
-424.8
-225.5
-103.5
12.1
271.1
804.7
1627.4
2615.4
3583.6
4407.2
5091.3
5729.8
6385
6988.2
7357.3
7332.9
6936.1
6418.5
6149.4
6406.1
7210
8323
9400.6
10190.2
10640.7
10865.3
11011
11144.4
11231.8
11206.9
11055
10841.9
10673.8
10626.9
10704.2
10842.5
10953.7
10966.5
10847.4
10599.8
10254.8
9857.7
9454.2
9073.3
8717.8
8367
7991.3
7565.3
7067.4
6469
5729.1
4809.8
3708
2480.3
1234.1
84.3
-901
-1728.5
-2464.2
-3184.9
-3930.6
-4688
-5409.4
-6048.5
-6586
-7032.9
-7414.1
-7750
-8048.5
-8312
-8550.7
-8791.1
-9071.4
-9421.5
-9839.6
-10280
-10665.8
-10923.6
-11023.3
-10997.6
-10925.8
-10892.2
-10945.5
-11084.6
-11274.4
-11476.8
-11668.9
-11841.7
-11989.9
-12108.1
-12199.9
-12285.2
-12389
-12514.5
-12626
-12666.3
-12605.9
-12485.2
-12404.7
-12455.2
-12639.2
-12852.2
-12951.8
-12866.4
-12648.6
-12420.2
-12249.3
-12075.6
-11763
-11249.7
-10656.5
-10232
-10143.2
-10273
-10207
-9458
-7789.5
-5401.9
-2842.6
-699.5
708.7
1446.7
1835.2
2206.5
2718.5
3327.9
3892.5
4296
4507.2
4558.5
4494.4
4346.4
4153.6
4001.5
4031.3
4392.2
5153.1
6228.6
7378.4
8297.4
8756.4
8708.8
8297.2
7755.5
7275.1
6922.8
6654.8
6399.2
6129.7
5878
5686.4
5555.6
5438
5279.5
5069.7
4852.7
4692.1
4619.9
4613.5
4615.5
4574.2
4470.6
4316.1
4131.7
3931.3
3722.8
3516.6
3328.5
3171.2
3045.8
2942.9
2855
2787.3
2753.7
2761.3
2797
2829.6
2827.2
2775.6
2684.1
2576
2475.6
2403
2377
2417.7
2540.8
2745.2
3007.2
3288.7
3552.4
3772.9
3932.5
4011.8
3990.9
3868
3683.8
3524.7
3490
3636.9
3943.3
4316.2
4646.6
4870.8
4995.1
5068.3
5127
5161.6
5127.8
4992.7
4772.5
4530
4330.7
4195.9
4086.7
3933.7
3684.2
3332.4
2911.5
2461.9
2004.8
1543.4
1087.4
673.2
358.8
192.1
176.2
259
355.8
392.7
340.9
223.9
94.8
1.9
-37.4
-40.7
-45.8
-89.4
-191.6
-353.4
-562.2
-800.2
-1047.7
-1284.6
-1493.8
-1668.6
-1819.8
-1973.5
-2156.2
-2374.3
-2603.9
-2802.4
-2937.3
-3012.8
-3073
-3181.8
-3392.9
-3735.5
-4217.8
-4836
-5565.9
-6339.5
-7033.2
-7500.8
-7649.2
-7510.2
-7244.9
-7056
-7052.9
-7166.3
-7179.5
-6865.5
-6135.7
-5094
-3963.9
-2948.1
-2129.5
-1478.2
-940.4
-525.1
-315.6
-403.9
-812
-1467
-2248.5
-3062.1
-3877.3
-4701.1
-5517.5
-6249.4
-6779.4
-7017.5
-6960.3
-6696.4
-6350.4
-6009.3
-5686.8
-5343.1
-4932.8
-4429.2
-3804
-2998.5
-1940.9
-626
805.3
2080.1
2937.3
3321.2
3470.1
3798.6
4631.9
5982.2
7548.9
8952.4
10017.2
10873.3
11789.6
12882
13948.7
14579.3
14454.8
13591.2
12328.3
11080.8
10060.6
9192.2
8269.2
7198.1
6116.9
5297
4920
4921.1
5016
4880.7
4339.9
3438.9
2378.1
1385.5
619.4
137.6
-86.7
-136.4
-120.3
-131
-199.7
-278
-279.4
-165.8
-14.7
-4.6
-312.2
-995.8
-1956.5
-3011.1
-4020.8
-4969.2
-5932.8
-6972.6
-8046.1
-9010.1
-9707.1
-10057.2
-10083.6
-9863
-9459.4
-8899.9
-8203.6
-7422.2
-6644.9
-5958.9
-5401.6
-4947.1
-4538.1
-4134.1
-3738.5
-3387.8
-3117.5
-2932.5
-2802.6
-2679.8
-2522.6
-2311.6
-2049.6
-1751.2
-1430.1
-1094.1
-749.7
-410.3
-99.8
154.1
330.9
423.7
433.6
360.7
204.1
-24.5
-283.8
-503.6
-611.3
-571.5
-408.5
-192.6
3.6
146.6
252.9
363.6
508.7
685.8
868.9
1030
1155.8
1246.6
1305.8
1334
1334.1
1318.4
1307.6
1319.5
1356.4
1402.8
1436.9
1443.9
1423.6
1384.4
1333.7
1273.1
1202.9
1128.5
1063.2
1021
1007.8
1017.7
1037.7
1057.7
1076.6
1101.5
1140.5
1196.5
1265.7
1340
1411.5
1474.2
1524.5
1561.2
1585.9
1603.4
1621.4
1648.2
1689.8
1748.2
1818.8
1890.6
1947.7
1974.8
1963.8
1919.6
1859.7
1806.4
1776.9
1775.1
1791.8
1811.1
1820.5
1816.5
1804.9
1796.8
1801.5
1822.3
1853.9
1883.8
1895.9
1876.1
1816.7
1719.7
1595.7
1460.7
1331.7
1223
1143.7
1098.2
1085.9
1102.9
1143.3
1199.3
1262.7
1325.6
1381.9
1427.1
1458.5
1473.6
1469.3
1444.9
1405.1
1362.5
1334.7
1336.6
1372.3
1432.7
1500.1
1557.2
1593.9
1607.8
1601
1577.8
1544.9
1511.2
1484.3
1463.9
1437.8
1387.9
1304.6
1197.4
1093.6
1021.6
991.8
988.5
981.3
945.3
875.9
786.6
695.1
608.8
522.7
427.6
320.8
209.5
104.8
13.3
-66.4
-140.9
-214.8
-286.5
-348.6
-392
-411.1
-407.5
-389.1
-367.1
-350.9
-344.4
-345.8
-352.1
-363.7
-384.2
-416.3
-455.8
-491.6
-512.6
-516.5
-511.9
-511.9
-523.3
-543.7
-568.2
-600
-652.4
-737.1
-848
-956.2
-1024
-1029.7
-984.4
-926.4
-897.4
-917.7
-979.5
-1059.9
-1141.2
-1222.8
-1316.5
-1434
-1575.8
-1730.8
-1883.6
-2024
-2150.8
-2270.4
-2390.9
-2515.3
-2637.3
-2743.5
-2820.3
-2862.9
-2880.7
-2893.2
-2920.2
-2971.1
-3041.7
-3120.4
-3197.5
-3270.4
-3340.1
-3405.4
-3459.1
-3491.9
-3499.4
-3486.8
-3466
-3447.5
-3434.3
-3420.9
-3400.1
-3369.3
-3333.5
-3301.3
-3279.8
-3269.9
-3266.8
-3262.5
-3248.5
-3217.4
-3164.4
-3088.6
-2994.3
-2890.9
-2790.4
-2702.7
-2633
-2580.6
-2540.4
-2504.4
-2463.5
-2408.4
-2331.4
-2229.2
-2104.1
-1963.9
-1818.8
-1677.7
-1545.1
-1421.1
-1302.7
-1186.9
-1073.5
-965.9
-869.2
-786.7
-715.5
-646.8
-570.5
-481.5
-383.9
-287.4
-199.6
-119.2
-36.5
59.6
172.2
294.4
414.4
525.6
632.2
747.9
887.3
1057.4
1253.8
1463
1668.6
1857.7
2023.5
2165.1
2285.3
2387.9
2477.4
2559.1
2640.3
2728.9
2830.4
2944.1
3062.2
3174
3272.8
3359.5
3441.2
3523.8
3605.8
3679.6
3738.7
3786.1
3835.8
3904.3
4000.1
4118.3
4246.4
4375.3
4505.9
4645.6
4797.4
4952
5091.5
5201
5280.8
5346.5
5418.1
5506.4
5606.7
5703.6
5782
5834.1
5860.9
5868.7
5867.2
5869.2
5889.4
5939.1
6019.6
6120.2
6225.2
6323.7
6413.5
6495
6560.3
6588.9
6557.7
6458.8
6310.4
6149.8
6012.4
5912
5837.5
5765.5
5675.7
5555.7
5392.4
5163.7
4842.2
4411.5
3882.8
3294
2690.9
2102.9
1532
963.8
388.3
-184.4
-725.5
-1201.2
-1588.6
-1885.7
-2115.8
-2326.5
-2579.4
-2928.7
-3392.5
-3935.2
-4480.6
-4954
-5327
-5630.7
-5922.1
-6232.4
-6538.7
-6788.2
-6954
-7071.1
-7216.5
-7443.2
-7724.3
-7958.1
-8035.2
-7915.6
-7655.9
-7365.8
-7132.6
-6972.8
-6842.6
-6687.4
-6485.1
-6249.5
-6004.4
-5757.7
-5501
-5227.6
-4946.1
-4676.6
-4437.4
-4240.7
-4104.8
-4067
-4175.7
-4458.7
-4888.2
-5373.5
-5792.5
-6046.1
-6098.4
-5981.1
-5761.8
-5503.5
-5240.3
-4978.6
-4714.3
-4446.7
-4179.9
-3914.1
-3637.9
-3332.5
-2987.2
-2614.8
-2255
-1957.2
-1751.3
-1627.3
-1540.9
-1443.4
-1316.3
-1179.9
-1067.7
-987.1
-901.1
-751.5
-508.7
-206.3
71.8
245.5
294.1
270.1
261
329
473.5
637.7
751
772.8
712
616.2
544
538.1
611.2
747.3
916.8
1097.6
1291.2
1523
1824.2
2205.2
2639.3
3068.9
3432.5
3695.2
3860.7
3961.1
4032.1
4092.6
4142.3
4172.6
4179.2
4166.5
4143.2
4117.2
4094.2
4080.1
4080.1
4093.8
4113.1
4128.2
4139.9
4164.1
4219.4
4305.6
4395.2
4452.1
4467.6
4473.7
4507.8
4545.4
4459
4058.6
3210.1
1955.8
540
-696
-1490.5
-1790
-1746.4
-1597
-1523.3
-1589.6
-1780.4
-2077.2
-2491
-3026.4
-3622.1
-4139.4
-4426.4
-4413
-4167.1
-3864.2
-3693.4
-3756
-4016.9
-4324.1
-4476.7
-4303.8
-3722.1
-2754.8
-1511.6
-142.2
1210.8
2437.1
3457
4206.7
4637.4
4734.6
4542.3
4164.8
3731.8
3344.8
3040.3
2795.1
2564.7
2325.5
2089.7
1888.3
1740.6
1636.9
1544.8
1431
1282.5
1112.8
953
834.6
774.7
768.2
791.9
815.5
814.9
780.4
716.1
631.4
533.4
424.6
307.7
193.1
100
49.3
51.5
98.7
168
234
281.1
308.1
321.6
324.8
313.6
281.5
229.1
167.2
109.5
59.4
4.5
-75.3
-190.4
-329.6
-464.4
-568.2
-633.7
-677.4
-725.4
-794.2
-880.4
-966
-1031.7
-1068
-1074.7
-1054.3
-1007.1
-934.2
-844.5
-756.6
-692.9
-667.9
-680.4
-716.1
-757.5
-795.2
-830.3
-868.9
-913.6
-959.9
-999.9
-1030.3
-1056.4
-1089.7
-1138.6
-1201.3
-1264.2
-1309.9
-1326.6
-1314.8
-1285.5
-1252.9
-1226.5
-1208.7
-1197.3
-1190.5
-1188.3
-1190.3
-1192
-1184.6
-1159.8
-1116.8
-1066.6
-1027.3
-1014.8
-1031.1
-1061
-1078.8
-1062.5
-1005.8
-921.8
-835
-767.1
-727.6
-712.3
-710.4
-712.1
-712.5
-709.5
-701.2
-686.9
-670.2
-659.8
-665
-689.2
-726.5
-765.8
-799.6
-830.3
-866.4
-914.2
-970.1
-1022.3
-1059.9
-1081.8
-1096.8
-1115.9
-1142.7
-1170.5
-1187.7
-1186.3
-1166.4
-1134.1
-1095.6
-1053.8
-1008.3
-959.4
-909.3
-861.5
-817.5
-775.7
-733.2
-689.2
-646
-606.5
-569.8
-529.4
-475.9
-402.5
-310.4
-209.2
-111.8
-27.9
39.9
93.6
136.3
167.8
186.4
192.1
189.7
187.2
191.7
203.9
218.4
228.2
230.4
228.5
230.2
240.3
256.9
271.7
275.9
266.2
247.2
227.7
214.8
209.8
208.4
204.7
195.7
183.3
173.1
171.6
182.9
207
239
271.9
299.4
320.3
338.3
360
388.5
421.3
451
471.3
481.6
486.4
491.1
496.9
501.1
501.6
499.8
500.6
506.6
514.6
516.9
507.7
487.9
463.7
441.4
421.9
401.7
377.7
351.4
327.9
310.8
298.7
286.9
271.9
254.7
238.7
225.7
213
195.8
172
144.7
119.7
101.3
88.6
77.5
64.1
47.3
28.9
11.6
-3.1
-14.3
-22.1
-27.3
-32.5
-41.1
-55.9
-76.8
-100
-120.2
-134.1
-142.6
-150.1
-161.5
-179.3
-202.8
-228.6
-252.6
-271.1
-280
-275.2
-253.4
-213.7
-160.5
-102.7
-51.6
-15.1
5.3
15.4
23.5
34.1
45.4
50.4
43.4
25
2.2
-16.6
-27.3
-33.1
-40.3
-53.5
-71.3
-88.6
-101
-108.2
-114.1
-122.8
-135.4
-149.6
-161.7
-169.7
-173.4
-173.6
-171
-165.7
-158.6
-151.8
-148.1
-148.4
-150.6
-150.1
-141.6
-123.4
-97.9
-71.9
-52.2
-42.8
-42.7
-46.8
-49.5
-47.7
-41.7
-34
-26.7
-19.6
-11.7
-3.1
3.9
5.3
-1.3
-14.2
-27.8
-36.3
-37.4
-34.3
-33.3
-38.8
-49.8
-60.4
-64.8
-62.1
-57.9
-60.6
-75.3
-100
-126.5
-146.4
-156.8
-162
-169.4
-183.5
-202.3
-219.3
-230
-235.8
-244
-261.6
-289
-318.4
-339.4
-346.3
-342.8
-338.5
-341.9
-354.3
-369.6
-379.7
-380.7
-375.1
-369.5
-369.2
-375.2
-384.2
-390.8
-390.4
-379.2
-355.1
-317.3
-267.9
-211.4
-154.4
-103
-60.8
-27.4
0
24.2
45
59.3
63.3
56.6
44.2
34.5
34.1
42.3
51.8
53.8
45.2
32.1
24.2
27
36.4
41.8
34.7
16.3
-3.2
-13.1
-10
-0.4
6.3
4.8
-2.5
-9.1
-10.9
-9.2
-7.8
-8.7
-9.5
-6
3.5
15.9
25.4
27.9
23.6
16.7
12
11.7
14.3
16.4
15.4
11.1
5.2
-0.5
-5.1
-9.2
-12.9
-15.5
-15.8
-14.1
-13.6
-18.6
-31.7
-49.8
-65.1
-69.2
-59
-39.2
-19.5
-9.2
-11.4
-22.3
-35.2
-44.9
-50.3
-53.3
-55.5
-57.6
-59
-59.6
-60.5
-63
-66.5
-69.1
-69.2
-67.1
-65.5
-67.4
-73.4
-79.9
-82.2
-77.7
-68.9
-61.9
-62.5
-71.8
-84.4
-92.1
-89.2
-76.1
-59.9
-48.8
-47.1
-51.6
-55.3
-52.8
-44.5
-36.1
-32.3
-30.4
-20
10.9
67
141.9
221.2
290.7
343.4
380.7
408.8
433.4
457.6
481.3
502.3
516.8
521
513.1
496.7
479.9
471
473.5
483.2
491.6
492.4
485.6
476.8
471.7
471.2
471
465.5
452.6
435.1
418.5
407
400.7
397.2
393.3
387.8
382
378.5
379.4
385
393.8
403.1
409.5
410.2
403.8
391.1
375.5
361.2
350.7
343
334.4
321.3
303.2
282.8
264
248.2
233.7
218.1
201.3
185.5
172.5
161.4
148.1
128.6
103.4
76.5
52.4
32
12.4
-10
-35.2
-59.5
-79
-93.6
-107.3
-124.7
-146.4
-168.6
-186
-196.8
-203.8
-212.7
-228.4
-252.8
-285
-322.5
-362
-398.9
-428.6
-448.9
-462.4
-475.9
-496.3
-525.5
-558.9
-589.6
-614.3
-636.6
-664.6
-703.4
-750.6
-797.3
-835.2
-862.4
-883.9
-907.3
-936.2
-969.3
-1002.2
-1032.3
-1059.9
-1086.3
-1112.5
-1139.3
-1168.5
-1203.5
-1245.7
-1290.2
-1325.9
-1340.5
-1327.7
-1292.5
-1248.1
-1208.9
-1182.7
-1170.1
-1167.1
-1170.8
-1180.4
-1196.4
-1218.6
-1246.4
-1280
-1319.6
-1362.2
-1398.5
-1415
-1401.4
-1358.8
-1301.9
-1250.3
-1214.8
-1188.7
-1152.4
-1088.8
-1000.4
-913.5
-866.5
-886.8
-974.4
-1101
-1227.5
-1327.5
-1399.1
-1458.7
-1520.2
-1577
-1603
-1569.6
-1467
-1306.5
-1100.7
-833.6
-448.2
132.2
958.7
2013.9
3200.7
4367.7
5356.6
6044.9
6368.9
6328.1
5978.5
5419
4768.6
4134.9
3583.9
3127.9
2740.6
2389.4
2063.2
1777.2
1554.9
1404.4
1309.5
1239.8
1170.7
1095.9
1024.8
969.8
934.6
912
890.5
862.3
826.1
785.8
745.4
705.9
665.2
619.9
567.8
509.1
446.2
381.8
318.2
256.2
196.6
141.4
94.4
58.9
35.7
20.7
6.9
-12.9
-41.6
-77.5
-115.3
-151.4
-185.3
-220.2
-258.5
-299
-336.6
-365.6
-385
-399.5
-416.4
-439.6
-466.2
-488.7
-502.1
-507.9
-513.4
-524
-537.4
-543.2
-530.6
-497.1
-450.7
-405.3
-371.2
-350.9
-340.1
-334.2
-331.9
-334.6
-342.7
-352.9
-361
-365.1
-367.9
-374.9
-389.9
-411.3
-433.1
-448.5
-454.6
-454.2
-453.5
-457.5
-466.4
-475.3
-477.5
-470
-455.9
-442.8
-437.4
-441.3
-450.4
-458.7
-463.5
-466.1
-469.6
-474.3
-475.8
-468.1
-448.3
-419.2
-388.4
-362.7
-344.1
-329.6
-313.9
-294
-271.3
-249.8
-232.8
-220.8
-211
-199.7
-185.1
-167.8
-149.7
-132.7
-117.3
-103.2
-90.1
-77.9
-66.8
-55.8
-44.1
-31.6
-19.8
-11
-6.9
-6.8
-8
-7.6
-4.2
1.4
7.2
11.9
15.1
17.3
19.6
23
28.5
36.1
44.9
52
54.3
49.8
39.6
27.3
16.8
10.8
9.5
11.3
14.4
17.2
18.7
18.1
15.2
11.4
8.7
8.4
9.8
9.9
5.4
-5.1
-19.7
-34.7
-46.9
-54.8
-58.6
-58.9
-56.5
-53
-51.3
-54.9
-64.8
-77.5
-84.8
-77.7
-50.9
-5.6
50.4
106.3
152.5
184.3
202.6
212.4
219.9
228.3
236.7
241.5
239.8
232.5
224.7
221.3
223.8
228.1
228.5
222.1
212.1
205.2
206
212.7
218
214.2
198.9
176.7
155.5
141.4
135.1
133.2
131.7
129.1
126.8
127.2
131.6
139.2
147.8
155.1
159.8
162
162.6
162.5
161.9
160.7
158.6
155.9
153.5
152.2
151.5
150.2
147.2
142.7
138.2
135.1
133
129.9
123.7
114.4
104.2
96
91.1
88.6
86.1
82.1
76.2
68.9
60.2
50.2
39.5
29.4
20.6
12.9
4.3
-6.1
-17.3
-26
-29.3
-27.8
-25.2
-26
-31.6
-39.2
-43.9
-42.8
-37.3
-31.5
-28.6
-29.3
-32
-35.1
-39.3
-46.5
-57.1
-68.6
-76.8
-78.1
-72.3
-62.4
-52.6
-45.2
-39.9
-34.9
-29.5
-25.3
-25.2
-32.1
-45.9
-63.6
-80.3
-90.3
-89.3
-75
-46.7
-6.2
42.7
94.3
142.5
183.5
217.5
247.3
275.9
303
324.2
334.4
331.9
320.8
308.4
300.7
298.5
298.4
297.2
295.3
296.8
305
318.7
332.8
341.9
344.9
345
345.9
347.7
346.1
336.8
320.1
301.6
288.6
285.1
288.4
292.3
291.6
286
279.9
277.8
281.6
289.1
296.3
300.5
301.3
300
297.7
294.1
288.3
279.3
267.4
253.7
240.1
228.6
221.2
218.2
218.3
218.6
216.1
210.3
203
197
193.3
189.1
179.5
161.3
135.8
108.9
87.5
75.3
71.1
69.8
65.7
55.6
39.9
21.7
5.6
-5.1
-9.6
-10.5
-12.7
-21
-37.5
-60.1
-84.4
-105.6
-121.8
-133.9
-144.3
-155.1
-167
-180
-193.1
-205.5
-215.8
-223
-226.9
-228.8
-232.3
-241.8
-259.9
-285.8
-315
-341.3
-360.9
-374.2
-386.2
-402.7
-425.7
-451.5
-472.8
-484.4
-487.5
-488.8
-496.4
-512.7
-533.7
-552.1
-564.2
-573.1
-585.5
-605
-626.9
-639.1
-629.4
-593.6
-538.2
-476.5
-420.5
-375.4
-339.4
-308.7
-282.3
-263.4
-255.8
-258.9
-267
-272
-269.4
-261.3
-254.7
-254.4
-258.8
-259.7
-248.5
-223.7
-192.1
-165.2
-150.3
-146.1
-144.2
-135.6
-117.2
-92.8
-69.6
-52.5
-41.8
-34.1
-25.3
-12.1
6.9
32.3
63.5
99
136.6
173.7
207.8
235.8
254.2
261.1
259
255.9
261.3
280
307.7
332.3
342.5
335.9
321.2
312
317.1
334.9
355.9
370.6
375
372.2
367.4
364.1
362.7
362.6
363.5
365.3
366.6
364.8
358
347.7
338.3
333.7
333.7
333.3
327.1
313.8
297.8
285.8
280.5
278.7
273.3
260.2
242.3
227.5
221.2
221.5
219.5
207.2
184.5
160.4
146
145.5
152.2
153.5
140.3
113.8
83.7
60.8
48.8
43.5
38
28.9
18.3
10.5
6.6
2.4
-8
-27
-50.9
-72
-84.4
-88.5
-90.3
-97.7
-115.1
-140.8
-168.7
-192.5
-208.9
-218.7
-225.9
-234.4
-246.2
-261.5
-278.8
-296.1
-311.4
-322.5
-326.7
-321.9
-306.9
-281.8
-247.4
-204.2
-153.2
-98.1
-45.8
-5.5
16.3
19.7
12.5
5
3.7
7.9
11.9
11.2
6.5
2.4
2.6
6.2
9
8.6
7.1
9.5
18.9
32.6
44.3
49.3
47.9
44.7
43.4
43.9
42.9
38.6
33.2
31.7
36.8
47
57.9
66.4
73.6
83.5
98.6
117
133.2
142.5
144.1
142.3
142.5
148.2
158.2
168
172
166.9
152.6
133.7
116.8
108.5
111.9
124.8
140.3
150.5
150.7
141.7
129.2
120.1
118.2
123.1
131.4
139.2
144.6
147.3
147.7
146
142.8
140.1
140.5
145
151.3
154
149.1
137.3
124.9
118.8
121.9
129.9
135.3
132.8
123.1
111.4
102.7
98
94.5
89
80.8
71.9
64.3
58.8
54.1
49
43.9
39.8
36.6
33
26.6
16.2
3.1
-9.4
-18.5
-23.3
-25.8
-29.9
-39.4
-56
-77.9
-99.8
-115.6
-120.6
-115.2
-105.1
-98.7
-102.8
-118.7
-141.4
-162.7
-174.7
-173
-156.8
-127.7
-88
-40.4
11
61
104.8
138.5
160.8
172.1
174.3
170.1
163.4
158.3
157.4
160.2
163.4
162.3
154.5
141.5
128
119.1
117.3
120.7
124.8
124.7
117.8
104.5
87.6
70.2
54
38.9
23.7
7.1
-10.9
-29.6
-47.2
-61.7
-70.7
-72.5
-66.5
-54.3
-39.9
-27.9
-21.9
-23
-30.3
-43.3
-61.9
-86.2
-114.6
-143.8
-169.6
-189.6
-204.7
-217.5
-230.3
-243.2
-254.7
-263.9
-272
-282
-296.4
-315.4
-336
-353.9
-366.3
-373.2
-377.7
-383.5
-393.2
-405.9
-418
-424.8
-423.2
-414.4
-402.8
-393.9
-390.8
-392.2
-393.6
-390.9
-383
-372.7
-363.4
-355.5
-345.5
-328.1
-301.7
-270.2
-241.9
-222.9
-212.4
-201.8
-180
-140.7
-86.5
-26.8
28.5
75.2
115.7
155.4
197
238.4
275
303.6
324.7
341.6
356.9
371.6
385.8
400.8
419.3
443.6
472.4
500.6
521.4
530.7
529.2
521.8
513.7
508
504.9
502.5
499.1
493.1
483
467.1
443.1
409.5
365
308.8
240.5
161
73.7
-15.1
-96.5
-160.1
-197.5
-204.7
-184.9
-147.9
-106.2
-69.9
-41.4
-16.5
11
43.4
76.2
101.7
115.8
121.2
125.5
134.8
149
162.2
168
164.4
154.4
143
133.2
125.3
118.7
113.9
111.7
111.1
109
101.9
89.5
74.9
61.7
51
40.5
27.7
14
4.9
5.4
15
26.7
32.4
29.4
22.6
20.7
28.3
42
52.6
52.2
40
22.7
8.5
1.8
0.9
1.1
-1.4
-6.8
-13.2
-19
-24.7
-31.1
-38.1
-43.5
-44.5
-40.4
-33.6
-28.4
-28.4
-33.3
-40
-44.6
-46.3
-48.1
-54.9
-69
-87.4
-102.8
-108
-100.9
-86.6
-74.2
-71
-78.4
-91.3
-102.1
-106.3
-104.6
-101.3
-101.1
-105.1
-111.2
-116.1
-117.4
-114.7
-109
-101.6
-93.3
-85.5
-79.6
-76.3
-74.8
-72.9
-69
-63.8
-59.9
-59.8
-63.1
-66.1
-64.7
-58.1
-49.6
-44.7
-46.5
-53.7
-62.4
-69
-72.8
-74.9
-76.3
-75.8
-72.5
-67.2
-63.2
-64.2
-71.4
-82.3
-92.9
-100.3
-103.5
-101
-89.4
-63
-18
43.7
112.9
176.7
225.1
255.1
271.6
281.8
290.5
296.7
296.7
288.5
275.4
265
264.6
276.3
295.4
313.7
325.1
328.3
327.2
327.2
331.1
337.5
342.9
343.6
338
327.3
314.4
302.5
293.1
286
279.4
271.7
263.2
256.5
254.9
259.6
268.6
277.5
282.8
284.8
287.5
295.1
308.3
322.3
329.6
325.8
313.1
299.6
294.5
301.1
314.9
325.7
324.2
308.3
283.7
260
244.9
239.1
237.7
234.2
225.2
212
198.4
186.8
176.4
164.8
150.9
136.7
125.2
117.7
111.1
99.6
78.7
47.7
10.8
-26
-58.5
-85
-106.8
-126.1
-145
-164.5
-184.7
-204.6
-223.8
-243.9
-268.5
-300.7
-340.1
-380.6
-413.3
-432.4
-440.1
-446.6
-462.7
-492.9
-531.9
-569
-595.3
-609.6
-617.7
-626.7
-640.1
-656.4
-672.5
-687.6
-704.3
-725.8
-751.5
-775.9
-792.1
-796.6
-793.2
-791.1
-798.2
-815.3
-834.5
-845
-841.4
-827.8
-814.9
-811.9
-819.8
-831.4
-837.5
-834.2
-825.1
-816.5
-809.8
-799.1
-773.9
-727.1
-660.3
-582.8
-505
-431.9
-360.7
-284.9
-201.7
-116.1
-40.3
14.4
44.4
57.5
68.6
91.1
129.6
178.4
226.9
267.3
299.2
328.5
361.6
400.4
440.8
476.3
502.2
518.1
527.2
533.3
538.9
544.5
549.8
554.2
557.4
559
558.9
557.2
555.5
555.9
560.3
569.9
583.8
599.6
613.5
621.1
619.6
609.3
594.3
580.7
573.5
572.8
574.2
570.7
558.1
537.4
514.3
495.1
484
480.5
480.8
480.1
474.3
460.9
440
413.8
386.4
362.3
343.7
329.9
317.8
304.2
287.7
269.1
250.5
233.9
220.5
210.1
201.5
192.6
180.8
165.1
146.4
127.8
112.1
100
89.3
76.8
61.4
45.2
31.1
20.5
11.5
0.9
-12.6
-26.8
-37.4
-42.6
-44.7
-48.7
-58.1
-72.1
-86
-95.5
-99.8
-102
-106.6
-116.3
-130.2
-145.5
-159.4
-170.2
-177.6
-183.1
-189.4
-200
-217.8
-242.6
-270.3
-294.3
-309.5
-315.8
-318.5
-324.5
-337.5
-354.6
-369.1
-375.1
-372.1
-365.7
-363.1
-368.5
-380.7
-395.5
-409.3
-422.1
-436.1
-452.2
-467.2
-473.8
-464
-433.8
-386
-328.4
-270
-215.9
-166.7
-120.4
-76.6
-38.9
-13
-2.7
-5.9
-14.8
-20.5
-18.4
-9.9
-0.1
6.1
7.9
7.6
8.6
13.3
22.5
36.5
54.4
74.1
91.3
101.7
103
96.8
87.3
78.8
72.8
68.7
65.8
65.1
68.9
79
94.6
112.9
131.4
148.8
165.3
180.5
192.2
197.8
196.5
191.2
187.2
189.1
197.9
210.5
222.3
230.1
233.7
235.5
238.3
244.1
252.6
262.4
271.8
279.5
285.6
291
296.6
301.3
302.6
298.1
288.6
278.9
275.6
281.8
294.1
304.2
305
296.2
285
280.7
286.9
298.9
306.4
302.2
287.1
269.6
258.5
256.9
260.1
260.4
253.6
242.1
231.8
227.1
226.4
224.9
218.9
210.5
205.5
207.6
213.7
215.3
205.1
183
157.2
137.4
127.5
123
115.3
98.5
74
48.1
26.5
10.5
-2.4
-15.3
-29.9
-46.8
-67.1
-93
-126
-165.3
-207.4
-247.7
-282.6
-310.7
-332.9
-352.1
-372.6
-398.4
-429.8
-462
-487.1
-499.6
-501.9
-504.5
-519.7
-552.8
-596.9
-635.7
-653.8
-645.2
-615.9
-578.8
-544.9
-518.2
-495.7
-473.3
-450.3
-431.1
-421.7
-424.9
-438.4
-456.2
-473
-486.4
-497.4
-507.3
-515.5
-520.2
-521.1
-520.7
-523.2
-529.8
-536.9
-538.2
-529.6
-513.4
-496.3
-484.2
-477.6
-473
-467.3
-461.7
-460.1
-464.1
-469
-466.6
-451.4
-424.6
-392.2
-359.1
-324.8
-284.8
-236
-181.5
-128.8
-84.5
-49.9
-21.2
7
38.3
73.8
113.6
156.8
201.8
245
282.8
313.8
340.8
368.5
400.3
435.8
471.1
502.2
527.6
548
564.9
579.4
591.8
602.4
612.1
621.3
629.2
634.5
636.5
635.9
634.3
632.3
628.5
621.4
611.5
602.2
596.9
595.7
593.2
582.6
561
533.5
510.3
499.3
499.1
498.9
485.7
454.7
413.4
376.6
355.8
351.7
354.1
349.9
332.4
304.6
274.8
249.4
229.1
209.9
188.4
164.9
143.2
126.1
112.8
99.2
81.1
57.7
31.7
7.8
-11
-24.8
-37.1
-52.1
-73.2
-100.3
-130.7
-159.6
-183
-199.9
-213.2
-227.5
-246.4
-269.5
-292.7
-310.5
-319.5
-320.4
-317.2
-314.9
-317.1
-324.9
-336.8
-349.6
-358.3
-358.2
-344.9
-316.7
-274.5
-222.7
-167.7
-116.6
-74.6
-44.1
-23.6
-10
-0.9
3.7
1.5
-8.5
-24.1
-39.5
-49.1
-51.6
-50.5
-51.2
-56.5
-64.3
-68.8
-65.8
-55.6
-42.5
-31.5
-25.2
-22.9
-23.5
-27.2
-35.7
-50.1
-69.1
-88.1
-101.3
-104.1
-94.9
-75.3
-49.4
-22.5
0.5
16.3
25.1
29.9
35.6
44.9
56.7
66.3
69.2
64.9
57.8
53.8
55.6
60.6
63.6
62
58.3
57.9
63
69.6
70.2
61
47.1
39.2
44.8
62
79.3
85.4
78.1
65.7
59.4
64
73.9
78.9
73.4
61
50.5
47.9
51.8
56.3
57.6
58.3
64.1
76.9
91.1
96.7
87.7
68.4
51.3
47.5
58.1
73.8
81.7
76
61.3
48.7
46.6
54.4
63.9
67
61.3
51.1
42.7
39.3
38.8
37
31.3
22.1
11.9
2.5
-5.4
-11.6
-14.9
-14
-8.5
-0.7
5.5
6.4
0.4
-11.9
-28.5
-47.1
-65.8
-83.1
-97.3
-107.9
-116.1
-124.2
-134.4
-147.2
-161.1
-173.1
-180.4
-180.7
-172.1
-152.6
-121.7
-80.9
-34.5
11.2
51.1
83.6
110.3
134.2
156.3
174
183.1
181.3
170.5
157.3
148.4
147.2
152.1
158.3
161.8
161.8
160.5
159.7
159.3
157.6
152.9
145.9
138.1
130.2
121.3
109.2
93.4
75.7
58.9
45.1
34.2
25.5
18.8
14.5
11.7
8
0.5
-10.6
-21.7
-28.4
-30.1
-31.5
-39.6
-57.1
-79.8
-99.6
-111.2
-116.3
-121.8
-133.9
-153.5
-177.4
-202.8
-229
-256.5
-282.8
-302.1
-310.7
-312.1
-317.3
-337.9
-376.4
-423
-461.5
-481.2
-484.4
-483.8
-492.5
-514.5
-543.3
-569.2
-587.9
-602.1
-616.3
-629.8
-636
-628
-607.7
-586.8
-580.4
-595.1
-623.7
-649.5
-657.6
-645
-621.1
-599.6
-588.5
-585.8
-583.1
-572.2
-550.3
-519.9
-485
-448.2
-409.7
-368.6
-324.9
-278.7
-229.5
-175.7
-115.4
-48.1
23.1
92.2
151.7
197.3
230.1
257.1
287
324.7
368.4
410.3
442.5
462.9
475.8
488.5
505.4
524.5
539.8
546.5
544.9
539.3
533.9
529
520.9
506.8
488
470.4
460
458.1
459.2
455.3
441.9
421.1
399.6
382.4
369
354.3
335.4
316.3
308
320.5
355.4
402.9
448.7
482.8
505.4
523.6
543.1
562
571.7
564.9
543
515.3
493.7
483.5
481.3
479.2
472
460.6
450.4
445.4
444.8
443.3
436
421.7
403.3
385.2
369.8
356.3
342.6
327.9
314.1
304.2
299.8
299
297.2
289.6
275.2
257.8
244.1
239.9
246.2
259.3
272.8
281.8
284.8
283.1
278.5
271.9
264.2
256.7
250.9
246.2
238.9
223.3
196.4
161.2
126.5
100.9
86.8
77.9
63.8
38
3
-31.2
-54.5
-64.2
-66.1
-69.4
-80.5
-98.5
-117.8
-133.1
-143.1
-150.8
-160
-172.2
-185.9
-198
-206
-209.8
-210.6
